-0.093156,-0.089767,-0.079466,-0.06405,-0.045418,-0.025317,-0.0055009,0.012358,0.026629,0.036057,0.040604,0.041236,0.039059,0.035052,0.03005,0.024759,0.019934,0.016254,0.013866,0.012443,0.011585,0.010975,0.010436,0.0099004,0.0092689,0.0084077,0.0072965,0.0060395,0.0047594,0.0035494,0.0024467,0.0014398,0.00051965,-0.00030173,-0.0010173,-0.0016368,-0.0021745,-0.002643,-0.0030482,-0.003388,-0.0036595,-0.0038649,-0.0040091,-0.0040964,-0.0041309,-0.0041171,-0.0040593,-0.0039627,-0.0038326,-0.0036739,-0.0034901,-0.0032845,-0.0030605,-0.0028211,-0.0025695,-0.0023083,-0.0020401,-0.0017678,-0.001495,-0.0012259,-0.00096442,-0.000714,-0.00047764,-0.000258,-5.7488e-05,0.00012207,0.00028006,0.0004169,0.00053342,0.00063052,0.00070902,0.00076974,0.0008138,0.00084258,0.00085747,0.00085983,0.00085093,0.00083217,0.00080524,0.000772,0.00073421,0.0006933,0.00065007,0.00060491,0.00055811,0.00051,0.00046084,0.00041085,0.00036016,0.00030901,0.000258,0.00020805,0.00016004,0.00011471,7.2636e-05,3.4287e-05,7.5462e-08,-2.9664e-05,-5.4851e-05,-7.5642e-05,-9.229e-05,-0.00010506,-0.00011417,-0.00011981,-0.00012224,-0.00012179,-0.00011888,-0.00011395,-0.00010741,-9.9678e-05,-9.1221e-05,-8.2533e-05,-7.4074e-05,-6.6191e-05,-5.9014e-05,-5.2499e-05,-4.6569e-05,-4.1148e-05,-3.616e-05,-3.1524e-05,-2.7131e-05,-2.2884e-05,-1.8774e-05,-1.4872e-05,-1.1257e-05,-7.9815e-06,-5.0555e-06,-2.4569e-06,-1.6996e-07,1.8059e-06,3.468e-06,4.8188e-06,5.8685e-06,6.6277e-06,7.094e-06,7.2567e-06,7.1098e-06,6.6642e-06,5.964e-06,5.0763e-06,4.0681e-06,3.0013e-06,1.9381e-06,9.3807e-07,5.7817e-08,-6.5883e-07,-1.2004e-06,-1.5818e-06,-1.8247e-06,-1.9494e-06,-1.9731e-06,-1.911e-06,-1.7822e-06,-1.608e-06,-1.4032e-06,-1.1755e-06,-9.3073e-07,-6.7686e-07,-4.2775e-07,-2.0073e-07,-1.0922e-08,1.3239e-07,2.2873e-07,2.8367e-07,3.0378e-07,2.9577e-07,2.673e-07,2.2683e-07,1.8354e-07,1.4519e-07,1.1428e-07,8.9033e-08,6.7035e-08,4.6734e-08,2.8247e-08,1.269e-08,5.9865e-10,-8.3079e-09,-1.4324e-08,-1.7442e-08,-1.7584e-08,-1.4928e-08,-1.0288e-08,-4.9637e-09,-2.5826e-10,2.947e-09,4.5321e-09,4.8821e-09,4.427e-09,3.5029e-09,2.3335e-09,1.1011e-09,5.1654e-11,-5.815e-10,-7.7075e-10,-6.7088e-10,-4.6361e-10,-2.8068e-10,-1.6028e-10,-7.4099e-11,-4.0233e-12,3.8434e-11,4.497e-11,2.6911e-11,2.6505e-12,-1.2244e-11,-1.2605e-11,-5.6252e-12,-4.1404e-14,1.8252e-12,1.511e-12,4.5628e-13,-1.9093e-13,-8.385e-14,5.0826e-14,-1.7779e-14,-5.3429e-16,2.5875e-14,-1.435e-14,-1.015e-14,1.2971e-14,-5.2042e-16,-6.9632e-15,3.5943e-15,2.0609e-15,-2.9629e-15,2.9837e-16,1.4953e-15,-8.5001e-16,-3.9205e-16,6.5919e-16,-1.0625e-16,-3.2266e-16,1.9776e-16,8.3267e-17,-1.2143e-16,5.5511e-17,9.0206e-17,-2.6021e-17,2.2551e-17,6.4185e-17,1.3878e-17,0,2.0817e-17,0,2.7756e-17,1.3878e-17,-1.3878e-17,-2.7756e-17,1.3878e-17,-2.2204e-16,-8.8124e-16,1.0131e-15,8.403e-15,2.7738e-15,-3.2798e-14,-1.6008e-14,2.1381e-13,6.9409e-13,1.0721e-12,2.8505e-13,-2.7677e-12,-6.9826e-12,-8.2822e-12,-2.1e-12,1.2583e-11,2.833e-11,3.0037e-11,6.9647e-12,-4.0205e-11,-1.0772e-10,-1.9627e-10,-3.1181e-10,-4.4903e-10,-5.4453e-10,-4.6784e-10,-9.9827e-11,5.8724e-10,1.4982e-09,2.4319e-09,3.1838e-09,3.6043e-09,3.4922e-09,2.5435e-09,4.9368e-10,-2.6911e-09,-6.6018e-09,-1.0342e-08,-1.2876e-08,-1.3439e-08,-1.168e-08,-7.6181e-09,-1.3312e-09,7.3043e-09,1.8426e-08,3.1919e-08,4.7327e-08,6.4163e-08,8.2895e-08,1.0519e-07,1.3239e-07,1.6366e-07,1.9508e-07,2.1974e-07,2.303e-07,2.2096e-07,1.8658e-07,1.2201e-07,2.3239e-08,-1.1096e-07,-2.7663e-07,-4.6366e-07,-6.5917e-07,-8.5159e-07,-1.0325e-06,-1.1966e-06,-1.338e-06,-1.4465e-06,-1.5082e-06,-1.5068e-06,-1.428e-06,-1.2602e-06,-9.9018e-07,-6.0142e-07,-8.2113e-08,5.6593e-07,1.3212e-06,2.1427e-06,2.9825e-06,3.7955e-06,4.5337e-06,5.1427e-06,5.5682e-06,5.7645e-06,5.7054e-06,5.3885e-06,4.8209e-06,4.0053e-06,2.9392e-06,1.618e-06,4.059e-08,-1.7877e-06,-3.863e-06,-6.1903e-06,-8.7803e-06,-1.1635e-05,-1.4725e-05,-1.7983e-05,-2.1337e-05,-2.4752e-05,-2.8249e-05,-3.1899e-05,-3.5775e-05,-3.9926e-05,-4.4409e-05,-4.9303e-05,-5.4659e-05,-6.0449e-05,-6.6506e-05,-7.2516e-05,-7.8107e-05,-8.2933e-05,-8.6669e-05,-8.901e-05,-8.9654e-05,-8.8305e-05,-8.4706e-05,-7.867e-05,-7.0057e-05,-5.8738e-05,-4.4551e-05,-2.7306e-05,-6.8739e-06,1.6739e-05,4.3352e-05,7.2637e-05,0.00010421,0.00013763,0.00017233,0.00020757,0.00024259,0.00027671,0.00030952,0.00034087,0.00037064,0.00039862,0.00042465,0.00044863,0.00047043,0.00048973,0.00050586,0.00051771,0.00052406,0.00052378,0.000516,0.00050003,0.00047529,0.0004412,0.00039717,0.00034268,0.00027736,0.00020089,0.00011283,1.2612e-05,-0.00010012,-0.00022514,-0.00036138,-0.000507,-0.00065981,-0.00081746,-0.00097726,-0.0011361,-0.001291,-0.0014388,-0.0015772,-0.0017045,-0.0018189,-0.0019188,-0.0020022,-0.0020673,-0.0021124,-0.0021357,-0.0021351,-0.0021078,-0.0020513,-0.0019632,-0.0018422,-0.0016873,-0.0014975,-0.0012716,-0.0010099,-0.00071458,-0.0003885,-3.2126e-05,0.0003601,0.00079913,0.0012926,0.0018394,0.0024345,0.0030744,0.0037576,0.0044742,0.005176,0.0057719,0.0061834,0.0063936,0.0064549,0.006472,0.0065491,0.0067764,0.0073341,0.0085219,0.010585,0.013539,0.017082,0.020617,0.023484,0.025127,0.024895,0.021959,0.015633,0.0056973,-0.0073518,-0.022266,-0.037562,-0.051965,-0.064176,-0.072738,-0.076384,-0.074375,-0.066877,-0.05513,-0.040776,-0.025199,-0.009671,0.0045105,0.016236,0.024708,0.029763,0.032177,0.033114,0.033451,0.033768,0.034408,0.035427,0.03682,0.03843,0.039569,0.03931,0.037042,0.03256,0.026147,0.018544,0.010416,0.0022287,-0.0052966,-0.011298,-0.015148,-0.01646,-0.01534,-0.0124,-0.0080467,-0.0023845,0.00423,0.011264,0.018106,0.023945,0.028297,0.031113,0.032021,0.030428,0.026066,0.018886,0.0093003,-0.0017146,-0.013514,-0.025861,-0.038142,-0.049577,-0.05954,-0.067418,-0.073138,-0.077089,-0.079042,-0.078296,-0.074528,-0.067663,-0.057861,-0.045623,-0.031179,-0.0147,0.0027628,0.019665,0.034761,0.04708,0.056078,0.061669,0.063698,0.062166,0.057821,0.051771,0.044954,0.038141,0.031799,0.026114,0.021332,0.017628,0.014807,0.012533,0.010549,0.0086537,0.006778,0.004955,0.0031553,0.0013381,-0.00044095,-0.0021046,-0.0036057,-0.0049098,-0.0060239,-0.0069856,-0.0078098,-0.0085003,-0.0090764,-0.0095576,-0.0099584,-0.010294,-0.010574,-0.010798,-0.010972,-0.011104,-0.011197,-0.011256,-0.011284,-0.011285,-0.011261,-0.011214,-0.011147,-0.011059,-0.010951,-0.010821,-0.010666,-0.010481,-0.010262,-0.010002,-0.0096937,-0.009331,-0.0089062,-0.0084106,-0.007836,-0.0071767,-0.0064279,-0.0055825,-0.004625,-0.0035276,-0.0022606,-0.00080695,0.00083665,0.0026693,0.0046906,0.0068922,0.0092162,0.011521,0.013638,0.015475,0.01707,0.018592,0.020266,0.022301,0.024984,0.028785,0.034197,0.041409,0.050084,0.059283,0.067733,0.074206,0.077459,0.076052,0.068637,0.054477,0.033874,0.0083754,-0.019733,-0.048212,-0.074897,-0.097523,-0.11405,-0.12309,-0.12426,-0.11856,-0.10768,-0.093192,-0.076574,-0.059276,-0.0425,-0.027154,-0.013677,-0.0018369,0.0087424,0.018146,0.026388,0.033417,0.038993,0.04289,0.044894,0.04477,0.042602,0.038802,0.03378,0.027972,0.021905,0.016029,0.010731,0.0062926,0.0027021,-0.00023007,-0.0026348,-0.0046144,-0.0062619,-0.0076118,-0.0087023,-0.0095661,-0.010141,-0.010326,-0.010062,-0.0093205,-0.0081453,-0.006684,-0.0050937,-0.0034418,-0.0016874,0.00032305,0.0028028,0.0059501,0.010042,0.015539,0.022887,0.032193,0.04305,0.054507,0.065338,0.074414,0.080597,0.082521,0.078969,0.069373,0.054115,0.034656,0.012982,-0.0091577,-0.030101,-0.047985,-0.061206,-0.068786,-0.070609,-0.067691,-0.061537,-0.053331,-0.044246,-0.035621,-0.028514,-0.023738,-0.021772,-0.022382,-0.025074,-0.029456,-0.034809,-0.040238,-0.045078,-0.048607,-0.050123,-0.04927,-0.045821,-0.039784,-0.031714,-0.022298,-0.012094,-0.0017492,0.0081555,0.017209,0.025032,0.03148,0.036691,0.040759,0.043741,0.045714,0.046627,0.04639,0.044985,0.042396,0.038724,0.034251,0.029251,0.023993,0.018826,0.01407,0.0099824,0.0067502,0.004367,0.0026967,0.0016355,0.0010927,0.00097055,0.0012034,0.0017206,0.0024467,0.003349,0.0043976,0.0055485,0.0067804,0.0080706,0.0093825,0.010711,0.012111,0.013758,0.015934,0.018821,0.022384,0.02647,0.03084,0.035168,0.038987,0.041476,0.041541,0.038446,0.032078,0.022585,0.010181,-0.004973,-0.022724,-0.042319,-0.062465,-0.082588,-0.10315,-0.12465,-0.14697,-0.16886,-0.18794,-0.20215,-0.21021,-0.2098,-0.19739,-0.17001,-0.1265,-0.068608,-0.00126,0.070048,0.14059,0.20465,0.25545,0.28704,0.2957,0.28145,0.24862,0.20279,0.14876,0.091797,0.037876,-0.0075772,-0.040313,-0.058727,-0.064689,-0.061114,-0.050026,-0.03339,-0.013553,0.00696,0.025269,0.039178,0.048211,0.052377,0.050985,0.043176,0.02851,0.0074565,-0.018035,-0.045295,-0.072119,-0.096523,-0.11623,-0.129,-0.13305,-0.12769,-0.11404,-0.094401,-0.071181,-0.046677,-0.023115,-0.002587,0.012975,0.022341,0.025579,0.023772,0.018446,0.011195,0.0033595,-0.0038678,-0.0091714,-0.01146,-0.010273,-0.005816,0.0010553,0.0092045,0.017762,0.026001,0.033071,0.038194,0.040816,0.040752,0.038436,0.034612,0.029859,0.024648,0.019467,0.014732,0.010822,0.0079773,0.0060906,0.0048583,0.0040355,0.0034471,0.0029946,0.0026774,0.0025137,0.00253,0.002841,0.0036711,0.0052772,0.0078143,0.01123,0.015225,0.019309,0.022992,0.025855,0.02738,0.026975,0.024241,0.019105,0.011927,0.0034913,-0.0054217,-0.014218,-0.022189,-0.028581,-0.032881,-0.034807,-0.034497,-0.032575,-0.029608,-0.026011,-0.022375,-0.019244,-0.016978,-0.015986,-0.016445,-0.018157,-0.020929,-0.024423,-0.027977,-0.031071,-0.033289,-0.034002,-0.03269,-0.029097,-0.023132,-0.015213,-0.0061899,0.0032533,0.012502,0.020774,0.027394,0.031848,0.033841,0.03363,0.031802,0.028819,0.025129,0.021275,0.01775,0.015004,0.013367,0.012901,0.013576,0.015366,0.018113,0.021454,0.024872,0.027819,0.029841,0.030488,0.029267,0.025842,0.020181,0.012665,0.0040754,-0.0047957,-0.013332,-0.020813,-0.026484,-0.029839,-0.030643,-0.029114,-0.025941,-0.021721,-0.016877,-0.012009,-0.0076573,-0.0041312,-0.0016414,-1.2173e-05,0.001259,0.0024535,0.0038132,0.0057615,0.0084733,0.011873,0.015703,0.019144,0.021174,0.02112,0.018312,0.012122,0.0024311,-0.010513,-0.025887,-0.041879,-0.056447,-0.06799,-0.075074,-0.076647,-0.07231,-0.062041,-0.046625,-0.028043,-0.0085634,0.0099517,0.02593,0.038305,0.046525,0.050215,0.049581,0.045732,0.040006,0.033491,0.027059,0.021228,0.016268,0.012479,0.009967,0.008445,0.0075325,0.0069455,0.006479,0.0060781,0.0057673,0.005513,0.0052789,0.0050518,0.0047921,0.0044659,0.004087,0.0037313,0.0035266,0.0035633,0.0039375,0.0049382,0.0069494,0.010252,0.014865,0.020288,0.025641,0.030147,0.033097,0.033498,0.030261,0.022493,0.0098489,-0.0068077,-0.025694,-0.045059,-0.063292,-0.078578,-0.089084
0.070176,0.071558,0.074861,0.079433,0.083804,0.085926,0.083736,0.075782,0.061179,0.039401,0.010661,-0.023381,-0.059272,-0.092359,-0.11825,-0.13384,-0.13728,-0.12767,-0.10525,-0.071957,-0.032154,0.0078158,0.041641,0.064697,0.07433,0.069804,0.05208,0.02353,-0.01153,-0.04681,-0.075937,-0.094232,-0.09918,-0.090817,-0.071386,-0.04399,-0.012467,0.018271,0.043593,0.060371,0.067075,0.064417,0.055228,0.042678,0.029604,0.018814,0.012167,0.010093,0.012257,0.017179,0.02208,0.024343,0.022194,0.01451,0.0016059,-0.014677,-0.032199,-0.048718,-0.061673,-0.069029,-0.069594,-0.0628,-0.04942,-0.031694,-0.01209,0.0072482,0.024375,0.037918,0.047063,0.051242,0.050676,0.046603,0.040467,0.033439,0.026466,0.020116,0.014707,0.010587,0.0078547,0.0061586,0.0050479,0.0041918,0.0033577,0.0024774,0.0015693,0.00057739,-0.00053846,-0.0017047,-0.0028306,-0.0038606,-0.0047598,-0.0055413,-0.0062446,-0.0068801,-0.0074476,-0.0079625,-0.0084384,-0.0088823,-0.0093015,-0.0096963,-0.010063,-0.010404,-0.010725,-0.011026,-0.011311,-0.01158,-0.011831,-0.012063,-0.012268,-0.012437,-0.012557,-0.012615,-0.012599,-0.012498,-0.012299,-0.01199,-0.011565,-0.011019,-0.010347,-0.0095354,-0.0085609,-0.0073956,-0.0060224,-0.0044312,-0.002609,-0.00054217,0.0017689,0.0042696,0.0068172,0.0092346,0.011417,0.013366,0.015177,0.017015,0.019088,0.02175,0.025639,0.031463,0.039605,0.049921,0.061677,0.073653,0.084455,0.092419,0.09531,0.090801,0.077353,0.054666,0.024002,-0.012017,-0.050327,-0.087553,-0.11956,-0.14219,-0.15241,-0.14887,-0.13251,-0.10641,-0.074208,-0.039598,-0.0068238,0.020122,0.038407,0.04651,0.045043,0.036716,0.024533,0.011131,-0.00078492,-0.0091332,-0.012781,-0.011115,-0.0047648,0.0042411,0.013925,0.022745,0.029268,0.032803,0.033278,0.030505,0.024739,0.016925,0.0079368,-0.0013345,-0.0098403,-0.017063,-0.022783,-0.026454,-0.027646,-0.026251,-0.022285,-0.016279,-0.0091753,-0.0016309,0.0058185,0.012422,0.017515,0.02059,0.02135,0.020084,0.017458,0.013982,0.010088,0.0062545,0.0028683,0.00027652,-0.0012807,-0.0019061,-0.001906,-0.0015264,-0.00095005,-0.00028896,0.00044831,0.0012752,0.0022113,0.0033658,0.004958,0.0072406,0.010367,0.014287,0.018705,0.023133,0.027085,0.030142,0.03179,0.031438,0.028689,0.023472,0.016153,0.0075195,-0.0016411,-0.010726,-0.019015,-0.025746,-0.030396,-0.032674,-0.032711,-0.031127,-0.028485,-0.025197,-0.021854,-0.018999,-0.016989,-0.016233,-0.016906,-0.018805,-0.021735,-0.025358,-0.029011,-0.032171,-0.034425,-0.035142,-0.033803,-0.030156,-0.024108,-0.016076,-0.0069103,0.0027047,0.012154,0.020653,0.027524,0.03225,0.034533,0.034623,0.033101,0.030427,0.027043,0.023487,0.020249,0.017777,0.016397,0.01617,0.01706,0.01904,0.021947,0.025413,0.028917,0.031905,0.03392,0.034508,0.033171,0.029569,0.023668,0.015847,0.0068885,-0.0024178,-0.011463,-0.01954,-0.025903,-0.030046,-0.03173,-0.031172,-0.029058,-0.025976,-0.022299,-0.018535,-0.015142,-0.01241,-0.010596,-0.009626,-0.0090971,-0.0088132,-0.0087078,-0.0086517,-0.008708,-0.0089607,-0.0093588,-0.010113,-0.011575,-0.013851,-0.016944,-0.020643,-0.024373,-0.027658,-0.030159,-0.031289,-0.030459,-0.027316,-0.021711,-0.014041,-0.0051597,0.0042272,0.0135,0.021851,0.028525,0.032939,0.034794,0.034421,0.032562,0.029828,0.026746,0.023954,0.022072,0.0216,0.022737,0.025128,0.028038,0.03081,0.032926,0.03379,0.032779,0.029443,0.023667,0.015868,0.0069272,-0.0023185,-0.011236,-0.019091,-0.025133,-0.028853,-0.029999,-0.0288,-0.02596,-0.022083,-0.017593,-0.013092,-0.0091123,-0.0059611,-0.0038486,-0.0025972,-0.0017023,-0.000881,0.00011044,0.0016979,0.0040586,0.0071198,0.010627,0.013767,0.015523,0.015226,0.012215,0.0058674,-0.0039325,-0.016933,-0.032306,-0.048229,-0.062646,-0.073942,-0.08068,-0.081804,-0.07691,-0.065972,-0.049774,-0.030334,-0.0099823,0.009366,0.026139,0.039321,0.048454,0.053254,0.054007,0.051973,0.048713,0.045457,0.04303,0.041682,0.041211,0.041439,0.042086,0.042364,0.041299,0.038211,0.032836,0.025495,0.017011,0.0080903,-0.00077918,-0.0088741,-0.015353,-0.019594,-0.021207,-0.020312,-0.01754,-0.01331,-0.007738,-0.0011885,0.0058033,0.012621,0.018444,0.022786,0.025591,0.026481,0.024861,0.020461,0.013228,0.0035737,-0.0075253,-0.019423,-0.03188,-0.044279,-0.055834,-0.065913,-0.0739,-0.079713,-0.083737,-0.085728,-0.084966,-0.081115,-0.07409,-0.064043,-0.05147,-0.03659,-0.019574,-0.0015007,0.016023,0.031705,0.044583,0.054167,0.060471,0.06344,0.06316,0.060537,0.056909,0.053359,0.050618,0.04889,0.047886,0.047378,0.047155,0.046537,0.04461,0.040732,0.034644,0.026652,0.017581,0.0081475,-0.0011681,-0.0096574,-0.016487,-0.021042,-0.022935,-0.022282,-0.019716,-0.01566,-0.010234,-0.0038057,0.0030864,0.0098224,0.015579,0.019863,0.022619,0.023467,0.02181,0.017379,0.010122,0.00044952,-0.010661,-0.022563,-0.035017,-0.047407,-0.058949,-0.069013,-0.076982,-0.082777,-0.086779,-0.088745,-0.087953,-0.084062,-0.076985,-0.066868,-0.054202,-0.039205,-0.022043,-0.0037907,0.013948,0.029882,0.04305,0.052964,0.059647,0.063057,0.063288,0.06125,0.058277,0.055452,0.053505,0.05263,0.052495,0.052781,0.053199,0.053057,0.051493,0.047969,0.042332,0.034978,0.02691,0.019143,0.012397,0.0073918,0.0046543,0.0041957,0.005737,0.0085992,0.011488,0.013143,0.012752,0.0097216,0.0039992,-0.0038022,-0.013044,-0.022962,-0.032323,-0.040056,-0.0455,-0.048195,-0.048362,-0.0468,-0.044113,-0.040991,-0.038475,-0.037308,-0.037918,-0.040576,-0.044915,-0.05024,-0.055996,-0.06122,-0.064577,-0.065122,-0.062236,-0.055591,-0.045448,-0.032227,-0.016437,0.00066313,0.017403,0.032458,0.044817,0.053868,0.059502,0.061668,0.060488,0.056745,0.05151,0.045669,0.039966,0.03487,0.03053,0.027103,0.02473,0.023416,0.023267,0.024492,0.027151,0.031227,0.036763,0.043762,0.051985,0.060595,0.067894,0.071797,0.070622,0.063342,0.049357,0.028349,0.00056983,-0.032382,-0.067027,-0.098702,-0.1231,-0.13723,-0.13928,-0.12842,-0.10488,-0.070562,-0.029826,0.010976,0.045543,0.069257,0.079471,0.075456,0.05817,0.029979,-0.004801,-0.039877,-0.068873,-0.087108,-0.092061,-0.083767,-0.064465,-0.037253,-0.0059683,0.024478,0.049454,0.065831,0.072081,0.068914,0.059166,0.046006,0.032276,0.020791,0.013415,0.010589,0.01198,0.016118,0.02023,0.021704,0.018772,0.010316,-0.0033488,-0.020376,-0.038623,-0.055845,-0.069475,-0.077474,-0.078646,-0.072413,-0.05954,-0.04226,-0.023029,-0.0039823,0.012944,0.026389,0.035542,0.039843,0.039518,0.035822,0.030223,0.02392,0.01788,0.012684,0.0086673,0.0061929,0.0053624,0.0057716,0.0068277,0.0080248,0.0090271,0.0097684,0.010362,0.01092,0.011611,0.012867,0.015422,0.020048,0.027172,0.036645,0.047705,0.059128,0.06953,0.077239,0.080013,0.075522,0.062222,0.039812,0.0095576,-0.025912,-0.063515,-0.099856,-0.13079,-0.15216,-0.16095,-0.15581,-0.13771,-0.10978,-0.075788,-0.039606,-0.0055732,0.022373,0.041625,0.050988,0.05136,0.045768,0.037695,0.030287,0.026446,0.027844,0.034418,0.045047,0.057473,0.068293,0.074164,0.072421,0.061241,0.040786,0.013645,-0.016351,-0.045078,-0.068518,-0.083331,-0.086997,-0.077954,-0.056686,-0.026458,0.007737,0.040864,0.06874,0.088188,0.096847,0.093102,0.076802,0.050173,0.017332,-0.017368,-0.050342,-0.078743,-0.10023,-0.11287,-0.11554,-0.10859,-0.093953,-0.073968,-0.050699,-0.026079,-0.0020703,0.019464,0.036967,0.049619,0.057522,0.06116,0.060988,0.057653,0.052119,0.045429,0.038527,0.032091,0.026387,0.021501,0.01756,0.014565,0.012287,0.010435,0.0087522,0.0070612,0.0053264,0.0035711,0.0017633,-0.00011506,-0.002009,-0.0038496,-0.0055819,-0.0071663,-0.0086041,-0.0099171,-0.011106,-0.012167,-0.013111,-0.013951,-0.0147,-0.015375,-0.015984,-0.016528,-0.017013,-0.017439,-0.017803,-0.018097,-0.018312,-0.018433,-0.018447,-0.018341,-0.0181,-0.01771,-0.017155,-0.016425,-0.015513,-0.014407,-0.013092,-0.011541,-0.0097258,-0.0076354,-0.0052681,-0.0026209,0.00030851,0.0035063,0.0069035,0.010343,0.013636,0.016671,0.019444,0.022045,0.024637,0.027425,0.030758,0.035271,0.04167,0.050326,0.061085,0.073202,0.085451,0.096437,0.10449,0.10737,0.10272,0.088995,0.065898,0.034681,-0.0020829,-0.041431,-0.080098,-0.11399,-0.1389,-0.15172,-0.15099,-0.1376,-0.1144,-0.084596,-0.051299,-0.01844,0.0098199,0.030019,0.039793,0.038951,0.029278,0.012263,-0.011338,-0.04008,-0.071676,-0.10308,-0.13054,-0.1514,-0.16446,-0.1676,-0.15747,-0.13159,-0.089315,-0.032812,0.032702,0.10162,0.16932,0.23015,0.27733,0.30504,0.30961,0.29111,0.25392,0.20367,0.14526,0.084091,0.026246,-0.022918,-0.059359,-0.081748,-0.092208,-0.093946,-0.089456,-0.081217,-0.071802,-0.063383,-0.057726,-0.055404,-0.055357,-0.056262,-0.057519,-0.05892,-0.060422,-0.062119,-0.06433,-0.067959,-0.074188,-0.083473,-0.094933,-0.1065,-0.11579,-0.12068,-0.11881,-0.10714,-0.083132,-0.045905,0.00276,0.058336,0.11543,0.16939,0.21547,0.24834,0.26337,0.25788,0.23248,0.19164,0.14116,0.085968,0.030768,-0.01946,-0.060274,-0.088374,-0.10285,-0.10597,-0.10118,-0.091144,-0.078159,-0.064445,-0.051928,-0.042327,-0.036453,-0.033545,-0.032288,-0.031829,-0.031613,-0.031277,-0.030628,-0.029352,-0.027244,-0.024543,-0.021625,-0.018703,-0.015895,-0.013208,-0.010564,-0.0079574,-0.0054277,-0.0029781,-0.00063072,0.0015791,0.0036589,0.005622,0.0074718,0.009243,0.011026,0.013048,0.015698,0.01933,0.024089,0.029916,0.036563,0.043633,0.050598,0.056572,0.06023,0.060261,0.055829,0.04668,0.033261,0.016602,-0.0019575,-0.020552,-0.036634,-0.047631,-0.051623,-0.047663,-0.036248,-0.019272,0.00069907,0.020667,0.03722,0.047157,0.048054,0.038671,0.0198,-0.0054585,-0.032697,-0.057307,-0.075132,-0.082981,-0.078872,-0.062197,-0.034421,0.00032617,0.035979,0.066343,0.08652,0.093471,0.086178,0.065412,0.033505,-0.0051812,-0.044359,-0.077616,-0.1001,-0.10911,-0.10458,-0.08866,-0.064438,-0.03576,-0.0075852,0.015265,0.029297,0.03267,0.02599,0.012162,-0.0054405,-0.02364,-0.039123,-0.049125,-0.05187,-0.046444,-0.033585,-0.015799,0.0041217,0.023834,0.041275,0.055087,0.064707,0.070015,0.071703,0.071322,0.070415
0.0065557,0.0043293,0.0020921,-0.00017104,-0.0023938,-0.0045024,-0.0064393,-0.0081647,-0.0096853,-0.011022,-0.012172,-0.013141,-0.013946,-0.014602,-0.015125,-0.01553,-0.015823,-0.01601,-0.016101,-0.016102,-0.016014,-0.015841,-0.015585,-0.015247,-0.014831,-0.014341,-0.013774,-0.013132,-0.012421,-0.011642,-0.010799,-0.0098828,-0.0088723,-0.0077441,-0.0064838,-0.0050834,-0.0035311,-0.0018126,7.3537e-05,0.0020763,0.0040571,0.0058457,0.0073453,0.0085657,0.0096109,0.010656,0.011918,0.01376,0.016827,0.021841,0.029195,0.038762,0.049821,0.061172,0.071438,0.078979,0.08158,0.076935,0.063521,0.041053,0.010807,-0.024575,-0.061999,-0.098063,-0.12861,-0.14948,-0.15762,-0.15167,-0.13257,-0.10345,-0.068081,-0.030336,0.0054404,0.035242,0.056299,0.067217,0.068775,0.063991,0.056437,0.049411,0.046012,0.048269,0.0568,0.071277,0.089894,0.10912,0.12488,0.13323,0.13094,0.11641,0.089797,0.052249,0.0060424,-0.045204,-0.09679,-0.14332,-0.17978,-0.20278,-0.21058,-0.20277,-0.1801,-0.14454,-0.099782,-0.051224,-0.0044609,0.03598,0.06676,0.085861,0.092431,0.086564,0.070181,0.047262,0.022221,-0.001193,-0.019969,-0.03219,-0.036853,-0.033469,-0.022894,-0.0076649,0.0093315,0.025682,0.039458,0.049512,0.055261,0.056262,0.052764,0.046029,0.03753,0.028467,0.019775,0.011963,0.0052802,3.5931e-05,-0.0036709,-0.0061635,-0.007857,-0.0090619,-0.0099998,-0.010729,-0.011226,-0.011542,-0.011719,-0.011689,-0.011367,-0.0107,-0.0096592,-0.0082597,-0.00654,-0.0045168,-0.0022156,0.00028629,0.0028799,0.005474,0.0080169,0.010478,0.012837,0.01509,0.017288,0.019614,0.022365,0.025733,0.029693,0.034096,0.038705,0.043195,0.047108,0.049627,0.049666,0.046498,0.040014,0.03037,0.017784,0.002426,-0.015549,-0.035383,-0.055783,-0.076171,-0.09701,-0.1188,-0.14142,-0.16362,-0.18302,-0.19758,-0.206,-0.20597,-0.19397,-0.16702,-0.12397,-0.066583,0.00023294,0.070972,0.14089,0.20428,0.25431,0.28508,0.29284,0.27761,0.24373,0.1968,0.14169,0.083775,0.029122,-0.016843,-0.049951,-0.068739,-0.075211,-0.072421,-0.062658,-0.048269,-0.031867,-0.015924,-0.0028503,0.0059639,0.010894,0.012712,0.011635,0.0078744,0.0017945,-0.0060011,-0.014373,-0.022329,-0.029546,-0.035702,-0.040259,-0.042834,-0.043172,-0.041358,-0.038037,-0.033827,-0.029114,-0.024448,-0.020353,-0.017174,-0.015323,-0.015,-0.01601,-0.018155,-0.021095,-0.024171,-0.026857,-0.02874,-0.029186,-0.027671,-0.023936,-0.017885,-0.009934,-0.00093172,0.0084399,0.017568,0.025674,0.032081,0.03628,0.037982,0.03745,0.035281,0.031947,0.027904,0.023704,0.019847,0.016792,0.014871,0.014148,0.01459,0.016174,0.018737,0.021916,0.025194,0.028018,0.029934,0.030489,0.029187,0.02569,0.019961,0.012378,0.0037181,-0.0052314,-0.013856,-0.021437,-0.027218,-0.030695,-0.031632,-0.030248,-0.027232,-0.023178,-0.018511,-0.01383,-0.009675,-0.0063559,-0.0040815,-0.0026751,-0.0016329,-0.00067109,0.00045451,0.0021711,0.0046579,0.007844,0.011476,0.014742,0.016624,0.016456,0.013575,0.0073566,-0.0023143,-0.015187,-0.030436,-0.046237,-0.060535,-0.071717,-0.078346,-0.079365,-0.074372,-0.063341,-0.047059,-0.027544,-0.0071308,0.012263,0.029062,0.042246,0.051352,0.056096,0.056759,0.054598,0.051171,0.047706,0.045026,0.043384,0.042572,0.042406,0.042594,0.042339,0.040667,0.036903,0.030786,0.022638,0.013291,0.0034988,-0.0061603,-0.014885,-0.02182,-0.026393,-0.028323,-0.027831,-0.025639,-0.022347,-0.018369,-0.014312,-0.010725,-0.0079209,-0.0061159,-0.0051343,-0.0044685,-0.003837,-0.0030003,-0.0015346,0.00073526,0.0037343,0.0072069,0.010336,0.012105,0.011843,0.0088869,0.0026122,-0.0070978,-0.019994,-0.03525,-0.051043,-0.065319,-0.076465,-0.083042,-0.083998,-0.078926,-0.067798,-0.051401,-0.031749,-0.011177,0.008402,0.025417,0.038853,0.048253,0.053334,0.054382,0.052657,0.049721,0.046806,0.044734,0.043753,0.043655,0.044258,0.045275,0.045916,0.045198,0.042438,0.037365,0.030297,0.022053,0.013338,0.0046369,-0.0033313,-0.0097293,-0.013939,-0.015575,-0.014763,-0.01214,-0.0081324,-0.0028607,0.0033072,0.0098341,0.0161,0.021281,0.024892,0.026885,0.026892,0.02432,0.01888,0.01049,-0.00045832,-0.012971,-0.026378,-0.04043,-0.054509,-0.067805,-0.079535,-0.088797,-0.095294,-0.099424,-0.10118,-0.10022,-0.096491,-0.090127,-0.081775,-0.072829,-0.064189,-0.055878,-0.047808,-0.039564,-0.030456,-0.02006,-0.0072599,0.010166,0.033883,0.064109,0.099541,0.13703,0.17289,0.20436,0.22842,0.24117,0.23936,0.22155,0.18893,0.14584,0.097528,0.048052,0.0011552,-0.039142,-0.069419,-0.087603,-0.094122,-0.092308,-0.08627,-0.079081,-0.073084,-0.070229,-0.071934,-0.078767,-0.089569,-0.10151,-0.11158,-0.11754,-0.11802,-0.11238,-0.10049,-0.082883,-0.061364,-0.038436,-0.0164,0.0029501,0.018481,0.02965,0.036153,0.038206,0.036871,0.033532,0.029363,0.025278,0.021817,0.019259,0.017894,0.017828,0.018728,0.020074,0.021429,0.022529,0.02339,0.024234,0.025265,0.02668,0.02885,0.032341,0.037674,0.045018,0.053977,0.063587,0.072629,0.079996,0.084551,0.084936,0.07994,0.069005,0.052525,0.031976,0.0093542,-0.01359,-0.035192,-0.053595,-0.067202,-0.075049,-0.077047,-0.074236,-0.068126,-0.059897,-0.050702,-0.041859,-0.034411,-0.029135,-0.02645,-0.026076,-0.027526,-0.030486,-0.034383,-0.038481,-0.042249,-0.04512,-0.046586,-0.046453,-0.044548,-0.040768,-0.035388,-0.028764,-0.021169,-0.012959,-0.004384,0.0044319,0.013274,0.021957,0.030337,0.038142,0.045119,0.051047,0.055557,0.058272,0.058958,0.057537,0.054245,0.049576,0.043961,0.037811,0.031611,0.025803,0.020753,0.016695,0.013567,0.011138,0.0092419,0.0077502,0.0065341,0.0055002,0.0045452,0.0035878,0.0026597,0.0018418,0.0011704,0.00064573,0.00024127,-8.6644e-05,-0.00035905,-0.0005943,-0.00087542,-0.0013539,-0.0021788,-0.0034212,-0.005044,-0.0069378,-0.009001,-0.011155,-0.013199,-0.014668,-0.014995,-0.013884,-0.011583,-0.0088865,-0.0068422,-0.0063914,-0.0085186,-0.014714,-0.026762,-0.045773,-0.071299,-0.10098,-0.13112,-0.158,-0.17826,-0.18799,-0.18286,-0.15956,-0.11742,-0.059421,0.008343,0.079189,0.14725,0.20646,0.2503,0.27325,0.2724,0.24898,0.20833,0.15687,0.099987,0.042902,-0.0088188,-0.050092,-0.077165,-0.089121,-0.088296,-0.077898,-0.060296,-0.037756,-0.01296,0.011129,0.031506,0.046291,0.055201,0.058241,0.055072,0.045682,0.030798,0.012077,-0.0081637,-0.027971,-0.045929,-0.060557,-0.070482,-0.074867,-0.073633,-0.067758,-0.058775,-0.047954,-0.036511,-0.025795,-0.016841,-0.010353,-0.006642,-0.0053348,-0.005848,-0.0076701,-0.0099153,-0.011595,-0.012151,-0.01131,-0.0091551,-0.0061459,-0.0026652,0.00072942,0.0029279,0.0028824,9.2733e-05,-0.0053085,-0.012339,-0.019662,-0.026234,-0.030946,-0.032489,-0.029867,-0.022599,-0.011066,0.0031625,0.018143,0.032327,0.044375,0.053188,0.058067,0.058568,0.054871,0.048097,0.039635,0.030589,0.021822,0.013895,0.0071252,0.0018371,-0.0018619,-0.0042929,-0.0058881,-0.0069589,-0.0077208,-0.0082664,-0.0086378,-0.008935,-0.0091966,-0.0093008,-0.009061,-0.0083232,-0.0069688,-0.0048502,-0.0017655,0.0024249,0.0076648,0.01363,0.019754,0.025448,0.030222,0.033485,0.03456,0.032976,0.028583,0.021682,0.013087,0.0036876,-0.0057592,-0.014307,-0.020964,-0.025017,-0.02591,-0.023448,-0.018077,-0.010464,-0.0014746,0.0074899,0.015026,0.020043,0.021268,0.017517,0.0082387,-0.0065473,-0.025805,-0.04729,-0.06869,-0.088037,-0.10306,-0.11146,-0.11151,-0.10231,-0.084665,-0.061025,-0.034042,-0.0060005,0.02068,0.043632,0.060859,0.071031,0.074275,0.072116,0.066246,0.058043,0.048809,0.039712,0.03178,0.025833,0.021986,0.019651,0.018152,0.017027,0.015986,0.014918,0.013781,0.012506,0.011173,0.010118,0.0097712,0.010441,0.012186,0.014735,0.017547,0.020054,0.021758,0.02205,0.020172,0.015488,0.0077338,-0.0027648,-0.015021,-0.027794,-0.039953,-0.050287,-0.057443,-0.060244,-0.057882,-0.050208,-0.038035,-0.022725,-0.0057402,0.011209,0.026284,0.037875,0.044545,0.045244,0.03982,0.028865,0.013499,-0.0044993,-0.023133,-0.04068,-0.055434,-0.065742,-0.070512,-0.069313,-0.062497,-0.051389,-0.037641,-0.022622,-0.0076665,0.0058469,0.016803,0.024431,0.028564,0.029863,0.029284,0.027552,0.025292,0.023069,0.021269,0.020182,0.019923,0.020278,0.020978,0.02196,0.023272,0.025127,0.028021,0.032498,0.038862,0.047105,0.056752,0.066831,0.076142,0.083237,0.086175,0.082895,0.071886,0.052485,0.025137,-0.008556,-0.046401,-0.08579,-0.12338,-0.15559,-0.1794,-0.19254,-0.19384,-0.18355,-0.16269,-0.1328,-0.096164,-0.055267,-0.012298,0.030437,0.070645,0.10651,0.1364,0.15889,0.17292,0.17723,0.17042,0.15208,0.12317,0.0858,0.043167,-0.0012119,-0.043812,-0.080479,-0.10696,-0.12031,-0.11946,-0.10557,-0.081903,-0.052286,-0.020475,0.0093172,0.03313,0.048286,0.053539,0.049733,0.039837,0.02717,0.014537,0.0045434,-0.0011428,-0.002207,0.00095489,0.0068663,0.012745,0.015939,0.014654,0.0077764,-0.0043748,-0.019955,-0.036826,-0.052756,-0.065195,-0.072107,-0.072298,-0.065198,-0.051576,-0.033675,-0.013958,0.005429,0.022543,0.036013,0.045022,0.049006,0.048184,0.043802,0.037308,0.029882,0.022482,0.015691,0.0098412,0.0052999,0.0021861,0.00016719,-0.0011918,-0.0022084,-0.0031003,-0.0039142,-0.0045994,-0.005179,-0.0056738,-0.0060028,-0.0060713,-0.0058181,-0.00521,-0.004313,-0.0033046,-0.0023632,-0.0015788,-0.00092322,-0.00023769,0.00069911,0.0020932,0.0042358,0.0076216,0.012776,0.019924,0.028744,0.038295,0.047285,0.054466,0.058582,0.058151,0.051726,0.038454,0.018583,-0.0062638,-0.033606,-0.060946,-0.085879,-0.10589,-0.1186,-0.12222,-0.11618,-0.10163,-0.080828,-0.056219,-0.030137,-0.0048099,0.017705,0.035646,0.048091,0.055359,0.058609,0.059302,0.058854,0.058322,0.058492,0.059966,0.062775,0.066328,0.069684,0.071574,0.070746,0.066448,0.058276,0.046173,0.030749,0.012959,-0.0061692,-0.025376,-0.043472,-0.059642,-0.073195,-0.083707,-0.091283,-0.096183,-0.098582,-0.098608,-0.096123,-0.090831,-0.082679,-0.07177,-0.05819,-0.042167,-0.024139,-0.0048965,0.01425,0.031863,0.046858,0.05852,0.066457,0.070544,0.070815,0.067675,0.062069,0.055096,0.047655,0.040402,0.033713,0.027804,0.022894,0.019034,0.015984,0.013421,0.011087,0.0088129
0.017362,0.020595,0.024505,0.02932,0.035047,0.041547,0.048564,0.055739,0.062597,0.068326,0.071789,0.072021,0.068466,0.060869,0.049323,0.03418,0.015986,-0.0041051,-0.024412,-0.043462,-0.060087,-0.073251,-0.082403,-0.087437,-0.088613,-0.087046,-0.084358,-0.081879,-0.081137,-0.084077,-0.092008,-0.10519,-0.12262,-0.14163,-0.15902,-0.17208,-0.17736,-0.1705,-0.14811,-0.10878,-0.054017,0.011385,0.081636,0.15159,0.21521,0.2655,0.2965,0.30451,0.28952,0.25579,0.20896,0.154,0.096379,0.042216,-0.0031117,-0.035539,-0.053633,-0.05928,-0.055383,-0.04423,-0.028286,-0.010241,0.0074654,0.022558,0.033672,0.04077,0.043991,0.043172,0.038354,0.029717,0.017592,0.0026765,-0.014284,-0.032418,-0.050442,-0.067109,-0.081392,-0.092291,-0.099203,-0.10205,-0.10114,-0.097571,-0.092918,-0.088497,-0.085824,-0.086846,-0.092899,-0.10425,-0.11992,-0.13724,-0.15299,-0.16447,-0.16821,-0.15985,-0.13599,-0.095224,-0.039055,0.027708,0.099221,0.1702,0.23444,0.28486,0.31555,0.32298,0.3074,0.27332,0.22677,0.17326,0.11883,0.069816,0.031275,0.0062992,-0.0050456,-0.0061016,-0.0013538,0.0051732,0.0095148,0.0082066,-0.00073289,-0.017636,-0.040937,-0.067387,-0.093343,-0.11553,-0.13097,-0.13743,-0.13407,-0.12166,-0.10226,-0.078628,-0.053507,-0.029386,-0.0085375,0.0070553,0.016218,0.019001,0.016434,0.010052,0.0014281,-0.0081828,-0.01763,-0.025582,-0.030933,-0.033214,-0.032626,-0.029959,-0.025947,-0.020728,-0.014479,-0.0080688,-0.0028133,-0.00013669,-0.00096219,-0.0054168,-0.014125,-0.028886,-0.050982,-0.079637,-0.11162,-0.14161,-0.16439,-0.17631,-0.17302,-0.14846,-0.097826,-0.020324,0.079054,0.18947,0.29899,0.39818,0.47747,0.52572,0.53341,0.49558,0.41495,0.303,0.17403,0.03983,-0.088513,-0.1993,-0.28226,-0.33005,-0.34133,-0.32268,-0.28404,-0.23394,-0.17986,-0.12871,-0.086114,-0.056516,-0.041629,-0.038932,-0.043642,-0.05125,-0.058045,-0.061406,-0.059984,-0.05318,-0.041156,-0.025222,-0.0075294,0.0096241,0.024294,0.035244,0.042158,0.045462,0.045838,0.043957,0.040584,0.036565,0.03266,0.029461,0.027217,0.025735,0.024698,0.023922,0.02329,0.022706,0.022082,0.021274,0.020195,0.018931,0.017656,0.016529,0.01568,0.015198,0.01522,0.015973,0.017609,0.020081,0.023111,0.026226,0.02894,0.030859,0.031498,0.030283,0.026823,0.021044,0.013292,0.0043471,-0.005008,-0.014169,-0.022416,-0.028989,-0.033355,-0.035199,-0.034633,-0.032284,-0.028765,-0.024574,-0.020397,-0.01686,-0.01442,-0.013602,-0.014681,-0.01749,-0.021777,-0.027047,-0.032451,-0.037305,-0.04103,-0.042807,-0.041952,-0.038117,-0.031237,-0.021896,-0.011162,9.6177e-05,0.011097,0.020883,0.028621,0.033682,0.035747,0.035194,0.032808,0.029214,0.024953,0.020597,0.016617,0.01343,0.011314,0.010149,0.0095935,0.0093815,0.0093207,0.0092972,0.0093067,0.0093618,0.0094847,0.0098017,0.010553,0.012006,0.014325,0.017463,0.021127,0.024833,0.028096,0.030502,0.031533,0.030599,0.027299,0.021561,0.013744,0.0046334,-0.0049884,-0.014522,-0.02325,-0.030411,-0.035481,-0.038166,-0.038591,-0.037367,-0.035054,-0.032058,-0.028964,-0.026309,-0.024445,-0.023775,-0.024467,-0.026316,-0.029122,-0.032537,-0.035894,-0.038663,-0.04043,-0.040566,-0.038552,-0.034134,-0.027221,-0.018241,-0.0080601,0.0026203,0.01318,0.022844,0.030951,0.037003,0.040711,0.042355,0.04258,0.041899,0.040744,0.039531,0.038492,0.03779,0.037565,0.037753,0.038212,0.038909,0.039868,0.041274,0.043642,0.047533,0.053149,0.060175,0.067799,0.074936,0.080498,0.083182,0.081137,0.072405,0.05595,0.032211,0.0028723,-0.029872,-0.064071,-0.097857,-0.12866,-0.15366,-0.1714,-0.18252,-0.18907,-0.19312,-0.1954,-0.19533,-0.19259,-0.18737,-0.17839,-0.16242,-0.13572,-0.095761,-0.043165,0.018129,0.083458,0.14871,0.20868,0.25681,0.28693,0.2948,0.28004,0.24668,0.20014,0.14522,0.087323,0.032515,-0.013631,-0.046779,-0.065339,-0.071135,-0.067084,-0.055568,-0.039148,-0.020695,-0.0029676,0.011465,0.021087,0.025912,0.026449,0.023135,0.016719,0.0082726,-0.00089442,-0.009299,-0.015585,-0.01863,-0.01768,-0.012787,-0.0048975,0.0044273,0.013376,0.020243,0.023197,0.020048,0.0091901,-0.0093218,-0.0338,-0.061544,-0.089758,-0.11613,-0.1381,-0.15235,-0.15609,-0.14846,-0.13058,-0.10491,-0.073978,-0.039734,-0.0044831,0.028515,0.056121,0.076494,0.089387,0.095749,0.096654,0.092712,0.084779,0.074456,0.06353,0.053306,0.044327,0.036466,0.029512,0.023542,0.018609,0.014451,0.010664,0.0069218,0.00311,-0.00065262,-0.0042069,-0.007521,-0.010604,-0.013403,-0.015829,-0.0178,-0.019272,-0.020261,-0.020804,-0.020914,-0.020594,-0.019887,-0.018868,-0.017601,-0.016107,-0.014352,-0.012257,-0.0097353,-0.0067059,-0.0030183,0.0015278,0.0070314,0.013409,0.020374,0.027438,0.034054,0.039671,0.043609,0.045209,0.044188,0.040705,0.035316,0.028908,0.022423,0.016867,0.013501,0.013317,0.016353,0.021759,0.028112,0.03378,0.037308,0.037037,0.030793,0.016965,-0.0043662,-0.031553,-0.062038,-0.093228,-0.12297,-0.14868,-0.16681,-0.17433,-0.17012,-0.15505,-0.13126,-0.10096,-0.065889,-0.028364,0.0080981,0.040001,0.065161,0.08297,0.094005,0.099036,0.098495,0.093254,0.085126,0.076171,0.067994,0.061511,0.056914,0.054095,0.052949,0.05303,0.053428,0.053147,0.051215,0.046741,0.039201,0.02853,0.015145,7.7463e-05,-0.015354,-0.029973,-0.042591,-0.051918,-0.056891,-0.056933,-0.052216,-0.043803,-0.033092,-0.021269,-0.0094606,0.0011365,0.0094551,0.014682,0.016545,0.015534,0.012449,0.0079235,0.0024947,-0.0033174,-0.0090319,-0.014075,-0.01793,-0.020492,-0.022015,-0.022897,-0.023655,-0.024763,-0.026603,-0.029913,-0.035845,-0.045239,-0.058054,-0.073124,-0.088206,-0.10085,-0.10901,-0.11024,-0.10147,-0.080146,-0.045445,0.00084225,0.054177,0.10918,0.16123,0.20559,0.23693,0.25062,0.244,0.21767,0.1761,0.12511,0.069596,0.014271,-0.035888,-0.076444,-0.1041,-0.11794,-0.12023,-0.1144,-0.10311,-0.088654,-0.073256,-0.058857,-0.04719,-0.039093,-0.03387,-0.030306,-0.027633,-0.025322,-0.022971,-0.020289,-0.016867,-0.012416,-0.0070128,-0.00079331,0.0061777,0.013722,0.021512,0.029054,0.035776,0.041171,0.044696,0.045734,0.04387,0.039062,0.03175,0.022845,0.013263,0.003715,-0.0049603,-0.011874,-0.016423,-0.018312,-0.017782,-0.015614,-0.012466,-0.0087449,-0.0050091,-0.0017627,0.00068409,0.0020631,0.0025009,0.0024945,0.0022804,0.0019147,0.0014984,0.00090409,-1.0658e-05,-0.0012439,-0.003114,-0.0060887,-0.010309,-0.015732,-0.021992,-0.028285,-0.033942,-0.038453,-0.041011,-0.040833,-0.037455,-0.030738,-0.021266,-0.01019,0.0015333,0.013061,0.023362,0.031517,0.036821,0.038902,0.038143,0.035385,0.031293,0.026439,0.021438,0.016798,0.012975,0.010279,0.008588,0.0075614,0.0069712,0.0066559,0.0064868,0.0063929,0.0062438,0.0058832,0.0052949,0.0045661,0.0037955,0.0031025,0.0025795,0.0022793,0.0023526,0.003066,0.0046173,0.0069992,0.0099377,0.0129,0.015305,0.016669,0.016422,0.013834,0.0083057,-0.00036043,-0.01174,-0.024757,-0.038134,-0.050774,-0.06155,-0.069198,-0.072616,-0.07116,-0.064965,-0.055072,-0.042845,-0.029436,-0.015946,-0.003538,0.0067572,0.014183,0.018542,0.020382,0.020522,0.019604,0.018172,0.016745,0.015735,0.015467,0.016074,0.017382,0.019138,0.021237,0.023641,0.026344,0.029464,0.033161,0.037476,0.04229,0.047282,0.051937,0.055782,0.058479,0.059555,0.058459,0.055016,0.049572,0.042868,0.035799,0.028817,0.021779,0.014627,0.0074721,-6.8913e-05,-0.0089447,-0.020355,-0.035268,-0.053414,-0.07318,-0.092855,-0.111,-0.12582,-0.13523,-0.13712,-0.12994,-0.11398,-0.091496,-0.065248,-0.037866,-0.012077,0.0094649,0.024029,0.029073,0.023764,0.0095334,-0.010827,-0.033714,-0.055387,-0.072612,-0.08192,-0.079397,-0.062355,-0.030498,0.013796,0.065599,0.11926,0.17,0.21297,0.24267,0.25449,0.24594,0.21782,0.17469,0.12244,0.065981,0.0099877,-0.040541,-0.081164,-0.10861,-0.122,-0.12367,-0.11713,-0.10513,-0.089952,-0.073798,-0.058529,-0.045791,-0.036337,-0.029281,-0.023128,-0.016939,-0.010253,-0.0030048,0.004507,0.012054,0.019346,0.025553,0.029711,0.031322,0.030349,0.027204,0.022707,0.017668,0.012816,0.0090885,0.0072535,0.0073829,0.0090321,0.011495,0.013899,0.015466,0.01535,0.012362,0.0056738,-0.0044251,-0.016929,-0.030758,-0.045023,-0.05906,-0.071816,-0.08145,-0.086352,-0.086182,-0.081506,-0.072991,-0.060991,-0.045646,-0.02773,-0.0091532,0.008015,0.022647,0.034437,0.043279,0.048881,0.050785,0.049047,0.044696,0.039124,0.033284,0.027632,0.022419,0.017943,0.014635,0.012746,0.012007,0.011844,0.011795,0.011659,0.011477,0.011433,0.011692,0.012405,0.013913,0.016808,0.021671,0.028744,0.037691,0.047537,0.056952,0.064628,0.06924,0.069284,0.063373,0.050737,0.031688,0.007867,-0.018181,-0.043795,-0.06644,-0.083685,-0.093511,-0.094721,-0.08736,-0.073008,-0.054397,-0.034589,-0.016453,-0.0023288,0.0062543,0.0086977,0.0054281,-0.0021277,-0.011767,-0.020837,-0.026862,-0.028209,-0.024315,-0.015768,-0.004138,0.0086628,0.020617,0.029415,0.032999,0.030205,0.020876,0.0061965,-0.011393,-0.029341,-0.045452,-0.057588,-0.064062,-0.063936,-0.056912,-0.043881,-0.027055,-0.0088278,0.0088436,0.024282,0.036342,0.044388,0.048003,0.047452,0.043932,0.038827,0.033249,0.028068,0.023739,0.020389,0.018151,0.017012,0.016652,0.016756,0.01719,0.017953,0.019342,0.022011,0.026612,0.033476,0.042523,0.053093,0.064013,0.073922,0.081159,0.0835,0.078699,0.065291,0.042975,0.012953,-0.022277,-0.059823,-0.096474,-0.12832,-0.15149,-0.16314,-0.16184,-0.14823,-0.12479,-0.09442,-0.060229,-0.025888,0.0051341,0.030113,0.047224,0.056351,0.058866,0.056292,0.050192,0.042376,0.034311,0.027165,0.021849,0.018314,0.01586,0.013914,0.011827,0.0089318,0.0049469,-0.00027898,-0.0066533,-0.013495,-0.020064,-0.025788,-0.029889,-0.031653,-0.030688,-0.026832,-0.020515,-0.01271,-0.0042447,0.0041611,0.011615,0.01733,0.020713,0.021434,0.019827,0.016644,0.012484,0.0078651,0.0033474,-0.00060941,-0.0035935,-0.0053255,-0.0059136,-0.0056594,-0.0047564,-0.0033438,-0.0015494,0.0005264,0.0027285,0.0049235,0.0071343,0.0094434,0.011892,0.014514
-0.0091075,-0.028323,-0.045991,-0.060033,-0.069042,-0.072274,-0.069824,-0.062383,-0.050766,-0.036314,-0.021044,-0.0067923,0.0051238,0.013823,0.019211,0.021665,0.021449,0.019159,0.015814,0.012201,0.0088991,0.0063218,0.0043172,0.0025721,0.0010096,-0.00067239,-0.0029293,-0.0059524,-0.0098421,-0.014448,-0.019141,-0.023357,-0.026719,-0.028627,-0.028495,-0.025987,-0.020953,-0.013788,-0.0053639,0.0035876,0.01244,0.020411,0.02681,0.031104,0.03299,0.032743,0.031009,0.028294,0.025029,0.021684,0.018648,0.016278,0.014821,0.014178,0.01407,0.014307,0.014763,0.015331,0.015903,0.01625,0.016098,0.015337,0.014043,0.012389,0.010555,0.0086966,0.007074,0.0062837,0.0071891,0.010483,0.0162,0.023562,0.031249,0.037753,0.041374,0.039891,0.030452,0.010387,-0.021396,-0.063625,-0.11295,-0.16477,-0.21404,-0.25525,-0.28193,-0.28756,-0.26789,-0.22245,-0.15484,-0.071714,0.019247,0.11034,0.19295,0.25814,0.29896,0.31212,0.29888,0.26463,0.21616,0.15971,0.10177,0.048933,0.0065079,-0.022286,-0.037256,-0.041593,-0.039565,-0.034483,-0.029005,-0.025174,-0.023999,-0.025774,-0.029664,-0.033182,-0.033553,-0.029199,-0.019843,-0.0064803,0.0088606,0.023902,0.036223,0.043085,0.042178,0.032534,0.014801,-0.0089679,-0.035937,-0.06314,-0.087714,-0.10704,-0.11913,-0.12314,-0.1196,-0.11002,-0.096142,-0.07974,-0.062443,-0.045563,-0.030075,-0.016441,-0.0044852,0.006139,0.015595,0.024004,0.03138,0.037526,0.042224,0.04525,0.046373,0.045699,0.043653,0.040651,0.037129,0.0336,0.03051,0.028256,0.027121,0.027023,0.027606,0.028543,0.029619,0.03075,0.031971,0.033275,0.034626,0.036262,0.038823,0.043075,0.049466,0.057818,0.067398,0.077381,0.08711,0.095594,0.10093,0.10059,0.092436,0.075617,0.050692,0.018703,-0.019578,-0.062947,-0.10861,-0.1523,-0.18961,-0.21755,-0.23506,-0.24174,-0.23676,-0.21951,-0.19116,-0.15489,-0.11478,-0.074156,-0.034818,0.0019211,0.034043,0.059372,0.07688,0.087147,0.091814,0.092427,0.089714,0.084215,0.077079,0.069766,0.063274,0.05784,0.053148,0.048926,0.045384,0.042902,0.041568,0.041345,0.042459,0.045386,0.050509,0.057654,0.065805,0.073395,0.078925,0.081009,0.078066,0.068547,0.051592,0.027649,-0.0010716,-0.031001,-0.058485,-0.080388,-0.093884,-0.096771,-0.088115,-0.068713,-0.041746,-0.012476,0.01365,0.032291,0.040268,0.035979,0.019636,-0.0070575,-0.040416,-0.074782,-0.10444,-0.12508,-0.13395,-0.13045,-0.11601,-0.092941,-0.064427,-0.034735,-0.0077971,0.013627,0.027855,0.03492,0.036443,0.034306,0.030404,0.026756,0.024687,0.024762,0.027265,0.031719,0.036867,0.041525,0.044742,0.04582,0.044766,0.042016,0.037907,0.032911,0.0277,0.022827,0.018743,0.015752,0.013756,0.012449,0.011605,0.011037,0.010606,0.01028,0.010057,0.0099468,0.01006,0.010617,0.011863,0.01394,0.016788,0.020108,0.023405,0.026174,0.027961,0.028194,0.026238,0.021688,0.014478,0.0049745,-0.0060365,-0.01774,-0.029364,-0.039864,-0.0482,-0.0538,-0.056576,-0.057057,-0.056254,-0.055075,-0.054601,-0.056532,-0.062312,-0.072353,-0.085951,-0.10107,-0.11508,-0.12572,-0.13023,-0.12489,-0.10663,-0.074201,-0.028775,0.025636,0.083906,0.1415,0.19327,0.23302,0.25543,0.25722,0.23822,0.20221,0.1545,0.099711,0.042839,-0.010475,-0.055267,-0.087779,-0.1066,-0.11357,-0.11176,-0.10357,-0.091373,-0.077626,-0.064417,-0.05358,-0.046037,-0.041111,-0.037619,-0.034821,-0.032137,-0.029117,-0.025492,-0.020882,-0.015008,-0.0079909,-1.9852e-05,0.0088064,0.018331,0.028396,0.038819,0.049284,0.059397,0.068696,0.076673,0.082982,0.087446,0.089878,0.090079,0.087784,0.082681,0.074583,0.063252,0.048178,0.028976,0.0057911,-0.020624,-0.048796,-0.07682,-0.10276,-0.12437,-0.13911,-0.14499,-0.14103,-0.12752,-0.10612,-0.079197,-0.049151,-0.018816,0.0087914,0.031259,0.046943,0.055305,0.05717,0.053802,0.046338,0.036152,0.024631,0.012916,0.0021764,-0.0068505,-0.014188,-0.019921,-0.023966,-0.02633,-0.026924,-0.025744,-0.023184,-0.019592,-0.015085,-0.0098422,-0.0040106,0.0023142,0.0088906,0.015506,0.02202,0.028156,0.033632,0.038197,0.041457,0.043024,0.042667,0.040311,0.036193,0.0308,0.024569,0.017908,0.011306,0.0052038,-3.5429e-05,-0.0041825,-0.0073004,-0.0096126,-0.011272,-0.012398,-0.013111,-0.013499,-0.013651,-0.01364,-0.013434,-0.012993,-0.012351,-0.011551,-0.010608,-0.009506,-0.0081721,-0.0065255,-0.0045154,-0.002025,0.0011436,0.0051107,0.0098174,0.014987,0.02013,0.024745,0.028423,0.030656,0.030859,0.02864,0.02393,0.017089,0.0089077,0.00017795,-0.0084951,-0.016391,-0.022745,-0.027036,-0.028972,-0.028684,-0.026789,-0.023854,-0.020287,-0.01668,-0.013574,-0.011329,-0.010353,-0.010821,-0.012537,-0.015309,-0.018804,-0.022363,-0.02547,-0.02772,-0.028486,-0.027254,-0.023775,-0.01796,-0.010236,-0.001465,0.0076621,0.016529,0.024353,0.030459,0.03433,0.035677,0.034787,0.032312,0.028762,0.024584,0.020267,0.01621,0.012772,0.010197,0.0083977,0.0071164,0.0061858,0.0054866,0.0049189,0.0044315,0.0039534,0.003425,0.0028937,0.0024521,0.0021546,0.0020325,0.002095,0.0023301,0.0027355,0.0033085,0.004014,0.0047945,0.0055905,0.0063448,0.0070066,0.0075323,0.0078765,0.0079915,0.0078351,0.0073728,0.0065757,0.0054189,0.003876,0.0019187,-0.00047499,-0.0033108,-0.0065744,-0.010231,-0.014236,-0.018541,-0.023086,-0.027797,-0.032597,-0.037423,-0.042235,-0.04702,-0.051772,-0.056471,-0.061089,-0.065596,-0.06995,-0.074084,-0.077891,-0.081214,-0.083875,-0.085702,-0.086545,-0.08627,-0.084752,-0.081857,-0.077443,-0.071382,-0.063566,-0.053908,-0.042324,-0.02871,-0.012992,0.0048218,0.024586,0.046027,0.068836,0.092743,0.11746,0.14262,0.16782,0.19271,0.21725,0.24168,0.26628,0.29109,0.31592,0.34054,0.3647,0.38793,0.40899,0.42571,0.43553,0.43634,0.42675,0.40586,0.37299,0.32797,0.27215,0.20898,0.14315,0.078793,0.018159,-0.038293,-0.090671,-0.1392,-0.18538,-0.23327,-0.28908,-0.35808,-0.43963,-0.52643,-0.61042,-0.68842,-0.76317,-0.84144,-0.92829,-1.0275,-1.1546,-1.3402,-1.6116,-1.9738,-2.3983,-2.8235,-3.1811,-3.4116,-3.4423,-3.1798,-2.5439,-1.5027,-0.10137,1.5307,3.2361,4.8747,6.2988,7.342,7.8584,7.757,7.0454,5.8476,4.3328,2.6494,0.945,-0.6239,-1.9171,-2.8273,-3.3184,-3.4508,-3.3225,-3.0137,-2.5974,-2.145,-1.7182,-1.3727,-1.137,-0.99191,-0.90085,-0.83866,-0.78733,-0.73494,-0.67564,-0.60073,-0.50518,-0.39772,-0.29175,-0.19634,-0.1174,-0.056353,-0.010516,0.022163,0.043426,0.057544,0.070032,0.085777,0.10857,0.13996,0.17865,0.22166,0.26574,0.3074,0.34273,0.36819,0.38143,0.38151,0.36964,0.34912,0.32354,0.296,0.26936,0.24554,0.22507,0.20778,0.19239,0.17636,0.15733,0.13384,0.10512,0.071814,0.036053,0.0002484,-0.033133,-0.061357,-0.082291,-0.094744,-0.098202,-0.093501,-0.082948,-0.069084,-0.054136,-0.040155,-0.028624,-0.020468,-0.016358,-0.016189,-0.018853,-0.023058,-0.027781,-0.032195,-0.035804,-0.038323,-0.039415,-0.038994,-0.037421,-0.035147,-0.032505,-0.029737,-0.026944,-0.024174,-0.021557,-0.019197,-0.01707,-0.015127,-0.013342,-0.011704,-0.010233,-0.0089547,-0.0078555,-0.0069111,-0.0061165,-0.0054703,-0.004965,-0.0045844,-0.0042937,-0.0040469,-0.0038055,-0.0035381,-0.0032063,-0.0027609,-0.0021552,-0.0013659,-0.00042098,0.00060004,0.0016241,0.0026279,0.0036136,0.0045889,0.0055747,0.0066377,0.0079913,0.010018,0.013069,0.017278,0.022572,0.028691,0.035224,0.041639,0.047051,0.050131,0.049568,0.044529,0.034774,0.020756,0.003507,-0.01565,-0.034872,-0.051619,-0.063315,-0.068032,-0.064823,-0.054173,-0.037905,-0.018412,0.0015207,0.018604,0.029617,0.031989,0.02428,0.0070763,-0.016874,-0.043837,-0.06999,-0.091576,-0.10511,-0.10758,-0.096887,-0.072976,-0.038294,0.0034125,0.048444,0.093427,0.13504,0.16982,0.19454,0.20729,0.20805,0.19781,0.17734,0.14725,0.10876,0.064085,0.01612,-0.032434,-0.079691,-0.1239,-0.16256,-0.19294,-0.21312,-0.22246,-0.22144,-0.21092,-0.19157,-0.16443,-0.1317,-0.096212,-0.060382,-0.025936,0.0061474,0.035219,0.060325,0.080673,0.096451,0.10844,0.11732,0.12356,0.12725,0.12827,0.12682,0.12305,0.11642,0.10613,0.091723,0.073127,0.05076,0.025482,-0.0017975,-0.02972,-0.05603,-0.078318,-0.094778,-0.10425,-0.10631,-0.10115,-0.089204,-0.071705,-0.050971,-0.029591,-0.009658,0.0073154,0.020475,0.02942,0.033878,0.03412,0.03127,0.026698,0.021518,0.016532,0.012161,0.0086075,0.0061297,0.0048103,0.0043485,0.0043315,0.0044443,0.0044767,0.0043756,0.0041656,0.0037999,0.0032378,0.0025373,0.0017781,0.0010144,0.00028221,-0.00042729,-0.0011464,-0.00188,-0.0026219,-0.0033789,-0.0041576,-0.0049605,-0.0057894,-0.0066376,-0.007492,-0.0083435,-0.0091848,-0.010006,-0.010797,-0.011547,-0.012244,-0.012875,-0.013429,-0.013892,-0.01425,-0.014489,-0.014596,-0.014563,-0.01438,-0.014028,-0.013479,-0.012701,-0.011676,-0.010398,-0.0088625,-0.0070652,-0.0050081,-0.0027403,-0.00039153,0.0018862,0.0040231,0.0060781,0.0082295,0.010708,0.013726,0.017571,0.022707,0.02959,0.038336,0.048553,0.059298,0.069361,0.077625,0.082967,0.084043,0.07965,0.069233,0.053176,0.032947,0.010548,-0.01225,-0.033758,-0.052097,-0.065646,-0.073376,-0.075077,-0.071687,-0.064701,-0.055401,-0.045154,-0.035473,-0.027522,-0.022264,-0.020416,-0.021922,-0.02622,-0.032407,-0.038808,-0.043583,-0.045476,-0.043347,-0.036136,-0.023377,-0.0052587,0.016747,0.03948,0.059541,0.074455,0.082316,0.081793,0.072286,0.053924,0.028603,0.00032581,-0.026601,-0.048913,-0.064331,-0.071622,-0.070318,-0.0604,-0.043243,-0.021979,-4.6347e-05,0.019878,0.035981,0.047417,0.053877,0.055119,0.051573,0.044692,0.036158,0.027313,0.019072,0.011811,0.0056517,0.00082993,-0.0025877,-0.0049333,-0.0066392,-0.0080393,-0.0093504,-0.010594,-0.011707,-0.012715,-0.013646,-0.01443,-0.014978,-0.015229,-0.015141,-0.014724,-0.014005,-0.012984,-0.011668,-0.010113,-0.00841,-0.0066392,-0.0048365,-0.0030071,-0.0011437,0.00077205,0.002802,0.0051482,0.0081649,0.012159,0.017226,0.023266,0.030011,0.037047,0.04384,0.049504,0.052757,0.052421,0.047822,0.0388,0.025737,0.0094325
-0.0079704,-0.0098221,-0.011565,-0.012679,-0.012535,-0.010758,-0.0073802,-0.0028306,0.0021565,0.0067101,0.0096121,0.008861,0.0020831,-0.012383,-0.034832,-0.063915,-0.096843,-0.13031,-0.16065,-0.18295,-0.19158,-0.1821,-0.15254,-0.10429,-0.042018,0.028468,0.10126,0.16924,0.22444,0.26012,0.2721,0.2602,0.22847,0.18247,0.12739,0.069096,0.013946,-0.032476,-0.06605,-0.085434,-0.092669,-0.09092,-0.082756,-0.070741,-0.057494,-0.045245,-0.035914,-0.030362,-0.027796,-0.026946,-0.026994,-0.027327,-0.027499,-0.027252,-0.02623,-0.024229,-0.021523,-0.018503,-0.015392,-0.012326,-0.0093405,-0.0063917,-0.0035117,-0.00075566,0.0019038,0.0045129,0.0070905,0.0096492,0.012184,0.014676,0.017125,0.019524,0.021824,0.023937,0.025788,0.027348,0.028609,0.02957,0.03024,0.030673,0.031068,0.031783,0.033137,0.035235,0.037988,0.041147,0.044339,0.047063,0.048453,0.047207,0.042079,0.032323,0.017749,-0.0012235,-0.023672,-0.048434,-0.073838,-0.097581,-0.11749,-0.13204,-0.14043,-0.14291,-0.1407,-0.13513,-0.12752,-0.11914,-0.11041,-0.101,-0.090339,-0.076818,-0.057763,-0.03089,0.0049242,0.049033,0.098288,0.14844,0.19567,0.23568,0.26334,0.27429,0.26595,0.23864,0.1964,0.14476,0.088416,0.032028,-0.019389,-0.061433,-0.090832,-0.10661,-0.11093,-0.10719,-0.098001,-0.085662,-0.072425,-0.060229,-0.050796,-0.044961,-0.041991,-0.040593,-0.039937,-0.039482,-0.038871,-0.037913,-0.0363,-0.033825,-0.030734,-0.027408,-0.024069,-0.020839,-0.017735,-0.014693,-0.011716,-0.0088354,-0.0060169,-0.0032113,-0.00038776,0.0024955,0.0054655,0.0085113,0.011591,0.014633,0.017576,0.020404,0.023113,0.025654,0.027941,0.029959,0.031916,0.034257,0.037442,0.041708,0.047094,0.053599,0.061243,0.06982,0.078433,0.085321,0.088408,0.086081,0.077419,0.061922,0.039315,0.0098105,-0.02508,-0.062012,-0.096612,-0.12501,-0.14455,-0.15362,-0.15132,-0.13736,-0.11287,-0.081258,-0.04756,-0.016502,0.0085973,0.025936,0.034889,0.035405,0.028169,0.015544,0.0012916,-0.010967,-0.018748,-0.02106,-0.018293,-0.011282,-0.00085475,0.011535,0.023757,0.033786,0.040191,0.042508,0.041359,0.037694,0.032203,0.025602,0.018746,0.012415,0.0072519,0.0035516,0.0010745,-0.00057818,-0.0016279,-0.0022042,-0.0024025,-0.0022861,-0.0019637,-0.0015092,-0.00085102,0.00011562,0.0013883,0.002849,0.0043203,0.0056779,0.0069523,0.008312,0.0099599,0.012079,0.014937,0.018987,0.024711,0.032297,0.041395,0.051056,0.059996,0.066978,0.070749,0.069859,0.062953,0.049282,0.029141,0.0040743,-0.023639,-0.05176,-0.078131,-0.10049,-0.11679,-0.12563,-0.12664,-0.12082,-0.10985,-0.095298,-0.07863,-0.061291,-0.044474,-0.029081,-0.015541,-0.0036147,0.0070848,0.016652,0.025109,0.032412,0.038327,0.042637,0.045131,0.045578,0.044064,0.040999,0.036785,0.031854,0.026724,0.021834,0.017559,0.01417,0.011643,0.0097776,0.0084326,0.0074953,0.0068611,0.0064829,0.0063086,0.006291,0.0064756,0.0069446,0.0077375,0.008861,0.010251,0.011742,0.013154,0.014401,0.015504,0.016605,0.017908,0.019596,0.021919,0.025291,0.030114,0.036469,0.043934,0.051553,0.058104,0.062491,0.063734,0.060772,0.052703,0.03916,0.020533,-0.0019568,-0.026694,-0.052384,-0.07817,-0.10336,-0.12743,-0.14992,-0.17023,-0.18763,-0.20115,-0.20918,-0.20946,-0.19937,-0.17646,-0.13933,-0.088615,-0.027291,0.040092,0.10823,0.17125,0.22295,0.25762,0.27122,0.26275,0.23494,0.19273,0.14153,0.086912,0.034499,-0.01059,-0.044344,-0.065013,-0.073816,-0.073568,-0.067055,-0.05686,-0.04539,-0.034688,-0.026455,-0.021493,-0.019186,-0.01829,-0.017808,-0.016927,-0.014988,-0.011619,-0.0066009,-7.3682e-05,0.0072116,0.014347,0.020637,0.025366,0.027825,0.027594,0.024527,0.018909,0.011588,0.0034938,-0.0046003,-0.011734,-0.016915,-0.019456,-0.018857,-0.015018,-0.0084714,9.6199e-05,0.0098791,0.01959,0.027941,0.033943,0.036525,0.034831,0.028578,0.017801,0.0031989,-0.013651,-0.031171,-0.048019,-0.062657,-0.073709,-0.080204,-0.081507,-0.077872,-0.070402,-0.060135,-0.047973,-0.034919,-0.021753,-0.0090888,0.0025373,0.013061,0.022664,0.031286,0.038826,0.04518,0.050029,0.053076,0.054152,0.053109,0.050074,0.045477,0.039718,0.033203,0.026442,0.019884,0.013895,0.0087339,0.0043709,0.0006057,-0.0026962,-0.0056361,-0.0083194,-0.010811,-0.013181,-0.015477,-0.017638,-0.019553,-0.021159,-0.022419,-0.023312,-0.023834,-0.023966,-0.023695,-0.023064,-0.022161,-0.021055,-0.019766,-0.018287,-0.016599,-0.014674,-0.012441,-0.0096856,-0.006033,-0.0011473,0.0050955,0.012615,0.021149,0.030299,0.03954,0.04798,0.054268,0.057073,0.055537,0.049384,0.038985,0.025208,0.0091988,-0.0072936,-0.021694,-0.031276,-0.033909,-0.028455,-0.015124,0.0047103,0.029081,0.055286,0.079613,0.097922,0.10649,0.1028,0.086335,0.058501,0.021885,-0.020113,-0.063221,-0.10255,-0.13335,-0.15209,-0.15727,-0.1496,-0.13138,-0.10564,-0.07585,-0.045958,-0.019739,5.7906e-05,0.012088,0.016628,0.015287,0.010016,0.0027298,-0.0045352,-0.010053,-0.012756,-0.012109,-0.0083183,-0.002252,0.0052838,0.013677,0.022299,0.030696,0.038507,0.045281,0.050786,0.054982,0.057656,0.058535,0.057444,0.054301,0.04934,0.043075,0.035945,0.028338,0.020727,0.013546,0.0071599,0.0018113,-0.0025502,-0.0061487,-0.0091444,-0.011658,-0.013808,-0.015677,-0.017353,-0.018902,-0.020287,-0.021422,-0.022265,-0.022795,-0.023013,-0.02294,-0.022578,-0.021913,-0.020956,-0.019732,-0.018263,-0.016568,-0.014664,-0.012568,-0.010332,-0.0080447,-0.0057788,-0.0035547,-0.0013373,0.00095941,0.0034278,0.0061461,0.0092563,0.012968,0.017407,0.022511,0.027991,0.033317,0.037908,0.041285,0.042937,0.042344,0.039269,0.03383,0.026552,0.018424,0.010494,0.0035224,-0.0018452,-0.0052249,-0.0068506,-0.0073512,-0.0076281,-0.0089653,-0.012495,-0.018795,-0.0281,-0.039975,-0.05297,-0.065304,-0.075295,-0.081262,-0.081992,-0.076967,-0.066076,-0.050066,-0.030863,-0.010682,0.0085631,0.025216,0.038164,0.046827,0.050826,0.050383,0.046607,0.040833,0.034163,0.027484,0.021331,0.01599,0.011774,0.0088002,0.0067811,0.0053326,0.004172,0.0031016,0.0020759,0.0011321,0.0002349,-0.00064241,-0.0014266,-0.0020298,-0.0023928,-0.0024705,-0.0022615,-0.0017894,-0.0010569,-6.3559e-05,0.0011765,0.0026527,0.0043511,0.0062371,0.008246,0.010286,0.012278,0.014179,0.015966,0.017616,0.019131,0.020567,0.022116,0.024081,0.026663,0.029841,0.03347,0.03732,0.041069,0.044262,0.046085,0.045451,0.041634,0.034524,0.024277,0.011112,-0.0048016,-0.023305,-0.043638,-0.064498,-0.085303,-0.10651,-0.1286,-0.15145,-0.1738,-0.19326,-0.20779,-0.21607,-0.2158,-0.20344,-0.176,-0.13227,-0.074024,-0.0061531,0.065832,0.13718,0.20217,0.25392,0.28638,0.29567,0.28172,0.24893,0.20313,0.14947,0.093605,0.041898,0.00019563,-0.026968,-0.038095,-0.035662,-0.023806,-0.0062491,0.01341,0.031478,0.044409,0.049066,0.043999,0.030382,0.010955,-0.011487,-0.034581,-0.056213,-0.074266,-0.086784,-0.092591,-0.091851,-0.085978,-0.07671,-0.065422,-0.053422,-0.042089,-0.032528,-0.025552,-0.021503,-0.019994,-0.02042,-0.022177,-0.024223,-0.02542,-0.025093,-0.022849,-0.018647,-0.012865,-0.0058958,0.0015199,0.0079031,0.011802,0.012402,0.009586,0.0041215,-0.0028003,-0.010183,-0.016761,-0.020812,-0.020865,-0.016069,-0.0065349,0.0063529,0.020766,0.035222,0.048309,0.05865,0.06521,0.067284,0.064877,0.059024,0.051077,0.042097,0.032951,0.024295,0.016564,0.010168,0.0052673,0.0015446,-0.0014537,-0.0040415,-0.0064305,-0.0086984,-0.010839,-0.012911,-0.014959,-0.016907,-0.018653,-0.020135,-0.021315,-0.022199,-0.022824,-0.023199,-0.023322,-0.023203,-0.02285,-0.022268,-0.021469,-0.020463,-0.019248,-0.017832,-0.016225,-0.014469,-0.012635,-0.010784,-0.0089212,-0.0070005,-0.0049275,-0.0026011,6.4947e-05,0.0032194,0.0070799,0.011784,0.017287,0.02331,0.029333,0.034786,0.039204,0.042084,0.0429,0.041372,0.037538,0.031852,0.025279,0.018865,0.013379,0.0094906,0.0076533,0.0078421,0.0097876,0.012898,0.015987,0.017825,0.017567,0.014558,0.0086859,0.00050518,-0.00949,-0.020796,-0.032402,-0.043254,-0.052444,-0.059021,-0.062654,-0.063651,-0.062,-0.057583,-0.050748,-0.041961,-0.031982,-0.022042,-0.012956,-0.0050911,0.00091883,0.0046159,0.0060462,0.0053474,0.003109,0.00051479,-0.0014897,-0.0022602,-0.0011796,0.0018194,0.0063111,0.011919,0.018012,0.023615,0.027938,0.030388,0.030569,0.028695,0.025342,0.020968,0.016068,0.011215,0.0068489,0.0033504,0.0009811,-0.00035709,-0.00095963,-0.0010607,-0.00084281,-0.00041196,0.00024198,0.0011498,0.0023458,0.0039563,0.0062257,0.0094268,0.013677,0.018815,0.02442,0.029918,0.034811,0.038743,0.041242,0.041742,0.040007,0.036291,0.031267,0.02582,0.020466,0.015185,0.01003,0.0052056,0.00052425,-0.0046316,-0.01117,-0.020001,-0.031157,-0.043689,-0.05663,-0.06917,-0.080247,-0.088717,-0.09342,-0.093376,-0.088627,-0.08014,-0.068869,-0.055673,-0.041482,-0.027024,-0.012985,-6.3218e-06,0.011787,0.022543,0.0322,0.040674,0.047858,0.053426,0.057093,0.058708,0.058137,0.055518,0.051286,0.045846,0.039605,0.033079,0.026719,0.020888,0.015842,0.011548,0.0078026,0.0044703,0.0014471,-0.0013738,-0.004055,-0.0066624,-0.0092428,-0.011737,-0.014044,-0.016106,-0.017884,-0.019356,-0.02052,-0.02136,-0.02186,-0.022019,-0.021839,-0.021314,-0.020452,-0.019294,-0.017914,-0.016378,-0.014712,-0.012912,-0.010968,-0.0088574,-0.0065115,-0.0037206,-0.00011527,0.0046389,0.010665,0.01788,0.026014,0.034647,0.043229,0.050854,0.056176,0.057874,0.055118,0.047666,0.035962,0.021013,0.0041191,-0.012895,-0.027518,-0.037253,-0.040336,-0.036006,-0.024848,-0.0086584,0.010317,0.029492,0.045782,0.056286,0.058968,0.052929,0.038958,0.019477,-0.0026647,-0.02483,-0.044458,-0.059442,-0.068498,-0.071133,-0.068147,-0.061699,-0.054058,-0.046794,-0.041006,-0.037255,-0.035543,-0.035681,-0.03699,-0.038118,-0.037905,-0.035832,-0.031723,-0.025775,-0.018435,-0.009959,-0.00061871,0.0090625,0.018658,0.027842,0.036229,0.043609,0.049847,0.054587,0.057467,0.058283,0.056964,0.053763,0.04919,0.043669,0.037594,0.03145,0.025676,0.020632,0.016548,0.013358,0.010833,0.0088139,0.0071763,0.00579,0.0045651,0.0034145,0.0022768,0.0011832,0.0001641,-0.00084772,-0.0019497,-0.0032009,-0.0046274,-0.0062243
