0.008678,0.0080581,0.0063149,0.0041024,0.0020628,0.00064096,3.026e-05,0.00015272,0.00070908,0.0013001,0.0016487,0.0017004,0.0015256,0.0012286,0.00090299,0.00061302,0.00039736,0.00026418,0.00019227,0.00015483,0.0001342,0.00012045,0.00010891,9.8019e-05,8.5912e-05,7.0689e-05,5.3239e-05,3.6475e-05,2.2652e-05,1.2599e-05,5.9864e-06,2.0729e-06,2.7003e-07,9.1043e-08,1.0349e-06,2.679e-06,4.7285e-06,6.9853e-06,9.2916e-06,1.1478e-05,1.3392e-05,1.4938e-05,1.6073e-05,1.678e-05,1.7065e-05,1.6951e-05,1.6478e-05,1.5703e-05,1.4689e-05,1.3497e-05,1.2181e-05,1.0788e-05,9.3665e-06,7.9589e-06,6.6024e-06,5.3283e-06,4.1621e-06,3.1251e-06,2.235e-06,1.5028e-06,9.3011e-07,5.0979e-07,2.2814e-07,6.6564e-08,3.3049e-09,1.4901e-08,7.8432e-08,1.738e-07,2.8454e-07,3.9756e-07,5.0271e-07,5.925e-07,6.6226e-07,7.0993e-07,7.3526e-07,7.393e-07,7.2409e-07,6.9251e-07,6.4841e-07,5.9598e-07,5.3906e-07,4.8066e-07,4.226e-07,3.6592e-07,3.1149e-07,2.601e-07,2.1238e-07,1.688e-07,1.2972e-07,9.5485e-08,6.6564e-08,4.3285e-08,2.5613e-08,1.3158e-08,5.276e-09,1.1756e-09,5.6944e-15,8.7993e-10,3.0086e-09,5.7217e-09,8.5174e-09,1.1038e-08,1.3035e-08,1.4354e-08,1.4942e-08,1.4833e-08,1.4134e-08,1.2985e-08,1.1537e-08,9.9357e-09,8.3212e-09,6.8117e-09,5.4869e-09,4.3813e-09,3.4826e-09,2.7561e-09,2.1686e-09,1.6932e-09,1.3076e-09,9.9375e-10,7.3612e-10,5.2368e-10,3.5247e-10,2.2118e-10,1.2671e-10,6.3704e-11,2.5558e-11,6.0363e-12,2.8888e-14,3.2613e-12,1.2027e-11,2.3221e-11,3.4439e-11,4.3926e-11,5.0325e-11,5.266e-11,5.0549e-11,4.4411e-11,3.5569e-11,2.5769e-11,1.6549e-11,9.0081e-12,3.7562e-12,8.7997e-13,3.3428e-15,4.3405e-13,1.4409e-12,2.5022e-12,3.3295e-12,3.8003e-12,3.8932e-12,3.6518e-12,3.1761e-12,2.5857e-12,1.969e-12,1.3817e-12,8.6625e-13,4.5814e-13,1.8297e-13,4.0291e-14,1.193e-16,1.7528e-14,5.2319e-14,8.0467e-14,9.2284e-14,8.7482e-14,7.145e-14,5.1454e-14,3.3686e-14,2.108e-14,1.306e-14,7.9268e-15,4.4937e-15,2.1841e-15,7.9788e-16,1.6105e-16,3.5838e-19,6.9022e-17,2.0517e-16,3.0422e-16,3.0921e-16,2.2285e-16,1.0583e-16,2.4638e-17,6.6697e-20,8.685e-18,2.054e-17,2.3835e-17,1.9599e-17,1.227e-17,5.4452e-18,1.2123e-18,2.6682e-21,3.3815e-19,5.9405e-19,4.5008e-19,2.1494e-19,7.8783e-20,2.5691e-20,5.4907e-21,1.6187e-23,1.4771e-21,2.0223e-21,7.2418e-22,7.025e-24,1.4992e-22,1.5889e-22,3.1643e-23,1.7143e-27,3.3313e-24,2.283e-24,2.082e-25,3.6453e-26,7.0308e-27,2.5832e-27,3.161e-28,2.8547e-31,6.6952e-28,2.0591e-28,1.0302e-28,1.6823e-28,2.7083e-31,4.8486e-29,1.2919e-29,4.2471e-30,8.7788e-30,8.9026e-32,2.236e-30,7.2252e-31,1.537e-31,4.3454e-31,1.1289e-32,1.0411e-31,3.9108e-32,6.9333e-33,1.4745e-32,3.0815e-33,8.1371e-33,6.7708e-34,5.0857e-34,4.1197e-33,1.9259e-34,0,4.3333e-34,0,7.7037e-34,1.9259e-34,1.9259e-34,7.7037e-34,1.9259e-34,4.9304e-32,7.7658e-31,1.0263e-30,7.061e-29,7.6941e-30,1.0757e-27,2.5626e-28,4.5715e-26,4.8176e-25,1.1493e-24,8.1253e-26,7.6599e-24,4.8757e-23,6.8594e-23,4.41e-24,1.5833e-22,8.0259e-22,9.022e-22,4.8507e-23,1.6164e-21,1.1603e-20,3.8522e-20,9.7228e-20,2.0163e-19,2.9651e-19,2.1888e-19,9.9654e-21,3.4485e-19,2.2445e-18,5.9142e-18,1.0136e-17,1.2991e-17,1.2196e-17,6.4696e-18,2.4372e-19,7.2418e-18,4.3584e-17,1.0695e-16,1.658e-16,1.8062e-16,1.3643e-16,5.8035e-17,1.7722e-18,5.3353e-17,3.3953e-16,1.0189e-15,2.2399e-15,4.1169e-15,6.8716e-15,1.1066e-14,1.7526e-14,2.6786e-14,3.8055e-14,4.8285e-14,5.3037e-14,4.8823e-14,3.4813e-14,1.4886e-14,5.4006e-16,1.2313e-14,7.6526e-14,2.1498e-13,4.345e-13,7.252e-13,1.0661e-12,1.4319e-12,1.7901e-12,2.0924e-12,2.2746e-12,2.2705e-12,2.0392e-12,1.5881e-12,9.8046e-13,3.6171e-13,6.7425e-15,3.2028e-13,1.7455e-12,4.5911e-12,8.8955e-12,1.4406e-11,2.0554e-11,2.6447e-11,3.1005e-11,3.3229e-11,3.2552e-11,2.9036e-11,2.3241e-11,1.6042e-11,8.639e-12,2.618e-12,1.6476e-15,3.1959e-12,1.4923e-11,3.832e-11,7.7093e-11,1.3538e-10,2.1684e-10,3.2338e-10,4.5526e-10,6.1265e-10,7.98e-10,1.0175e-09,1.2798e-09,1.5941e-09,1.9722e-09,2.4307e-09,2.9876e-09,3.6541e-09,4.423e-09,5.2585e-09,6.1008e-09,6.8778e-09,7.5116e-09,7.9227e-09,8.0378e-09,7.7977e-09,7.1751e-09,6.1889e-09,4.9079e-09,3.4501e-09,1.9847e-09,7.4563e-10,4.7251e-11,2.8018e-10,1.8794e-09,5.2761e-09,1.0859e-08,1.8941e-08,2.9697e-08,4.3087e-08,5.8849e-08,7.6567e-08,9.5805e-08,1.1619e-07,1.3737e-07,1.589e-07,1.8033e-07,2.0127e-07,2.213e-07,2.3984e-07,2.5589e-07,2.6803e-07,2.7464e-07,2.7435e-07,2.6625e-07,2.5003e-07,2.259e-07,1.9466e-07,1.5774e-07,1.1743e-07,7.6927e-08,4.0358e-08,1.2731e-08,1.5907e-10,1.0024e-08,5.0687e-08,1.306e-07,2.5705e-07,4.3535e-07,6.6824e-07,9.5503e-07,1.2908e-06,1.6666e-06,2.07e-06,2.4875e-06,2.9052e-06,3.3085e-06,3.6818e-06,4.0087e-06,4.2736e-06,4.4622e-06,4.5613e-06,4.5586e-06,4.4429e-06,4.2076e-06,3.8541e-06,3.3937e-06,2.8471e-06,2.2424e-06,1.6168e-06,1.0198e-06,5.1062e-07,1.5093e-07,1.0321e-09,1.2967e-07,6.3861e-07,1.6708e-06,3.3834e-06,5.927e-06,9.4522e-06,1.412e-05,2.0019e-05,2.6791e-05,3.3315e-05,3.8234e-05,4.0878e-05,4.1666e-05,4.1887e-05,4.2891e-05,4.5919e-05,5.3789e-05,7.2624e-05,0.00011204,0.00018329,0.0002918,0.00042506,0.0005515,0.00063138,0.00061976,0.0004822,0.00024439,3.246e-05,5.4049e-05,0.00049577,0.0014109,0.0027004,0.0041186,0.0052908,0.0058346,0.0055317,0.0044726,0.0030393,0.0016627,0.000635,9.3529e-05,2.0344e-05,0.00026362,0.00061047,0.00088585,0.0010353,0.0010966,0.0011189,0.0011402,0.0011839,0.0012551,0.0013557,0.0014769,0.0015657,0.0015453,0.0013721,0.0010602,0.00068368,0.00034389,0.0001085,4.9669e-06,2.8054e-05,0.00012765,0.00022946,0.00027093,0.0002353,0.00015375,6.4749e-05,5.6859e-06,1.7892e-05,0.00012688,0.00032783,0.00057335,0.00080071,0.00096804,0.0010254,0.00092585,0.00067943,0.00035669,8.6496e-05,2.9399e-06,0.00018262,0.00066877,0.0014548,0.0024579,0.003545,0.0045453,0.0053491,0.0059426,0.0062476,0.0061302,0.0055544,0.0045783,0.0033479,0.0020815,0.00097213,0.00021609,7.6333e-06,0.00038672,0.0012083,0.0022165,0.0031447,0.003803,0.0040575,0.0038646,0.0033433,0.0026803,0.0020209,0.0014547,0.0010112,0.00068193,0.00045506,0.00031073,0.00021924,0.00015708,0.00011128,7.4886e-05,4.5941e-05,2.4552e-05,9.9558e-06,1.7905e-06,1.9444e-07,4.4295e-06,1.3001e-05,2.4106e-05,3.6287e-05,4.8799e-05,6.0993e-05,7.2254e-05,8.2381e-05,9.1348e-05,9.917e-05,0.00010597,0.0001118,0.00011659,0.00012039,0.0001233,0.00012538,0.0001267,0.00012734,0.00012735,0.0001268,0.00012576,0.00012425,0.00012231,0.00011993,0.0001171,0.00011376,0.00010986,0.00010531,0.00010003,9.3967e-05,8.7068e-05,7.932e-05,7.0738e-05,6.1403e-05,5.1504e-05,4.1318e-05,3.1165e-05,2.139e-05,1.2444e-05,5.1101e-06,6.5117e-07,6.9999e-07,7.1251e-06,2.2002e-05,4.7502e-05,8.4937e-05,0.00013274,0.00018601,0.00023947,0.00029139,0.00034567,0.00041069,0.00049734,0.00062419,0.00082859,0.0011694,0.0017147,0.0025084,0.0035145,0.0045878,0.0055065,0.006,0.0057838,0.004711,0.0029678,0.0011474,7.0148e-05,0.00038941,0.0023244,0.0056096,0.0095108,0.013008,0.01515,0.01544,0.014056,0.011594,0.0086848,0.0058635,0.0035137,0.0018062,0.00073735,0.00018706,3.3741e-06,7.6429e-05,0.00032929,0.00069634,0.0011167,0.0015204,0.0018395,0.0020155,0.0020043,0.0018149,0.0015056,0.0011411,0.00078243,0.00047983,0.00025694,0.00011515,3.9597e-05,7.3012e-06,5.2931e-08,6.9422e-06,2.1293e-05,3.9212e-05,5.7939e-05,7.5731e-05,9.151e-05,0.00010284,0.00010664,0.00010124,8.6871e-05,6.6346e-05,4.4675e-05,2.5945e-05,1.1846e-05,2.8474e-06,1.0436e-07,7.8559e-06,3.5404e-05,0.00010084,0.00024147,0.00052383,0.0010364,0.0018533,0.002971,0.004269,0.0055375,0.0064958,0.0068098,0.0062361,0.0048126,0.0029285,0.001201,0.00016853,8.3864e-05,0.00090606,0.0023026,0.0037462,0.0047315,0.0049856,0.0045821,0.0037868,0.0028442,0.0019577,0.0012689,0.00081305,0.00056348,0.00047402,0.00050095,0.0006287,0.00086768,0.0012116,0.0016191,0.002032,0.0023627,0.0025123,0.0024275,0.0020995,0.0015828,0.0010058,0.00049719,0.00014626,3.0596e-06,6.6512e-05,0.00029615,0.00062659,0.00099099,0.0013462,0.0016613,0.0019133,0.0020898,0.0021741,0.002152,0.0020237,0.0017974,0.0014995,0.0011732,0.00085564,0.00057568,0.00035442,0.00019796,9.9648e-05,4.5565e-05,1.907e-05,7.2724e-06,2.6748e-06,1.194e-06,9.4196e-07,1.4483e-06,2.9604e-06,5.9863e-06,1.1215e-05,1.9339e-05,3.0786e-05,4.5973e-05,6.5134e-05,8.8031e-05,0.00011472,0.00014668,0.00018929,0.00025389,0.00035422,0.00050106,0.00070064,0.00095113,0.0012368,0.00152,0.0017203,0.0017256,0.0014781,0.001029,0.0005101,0.00010365,2.4731e-05,0.00051638,0.0017909,0.0039019,0.0068207,0.01064,0.015538,0.0216,0.028513,0.03532,0.040866,0.044189,0.044017,0.038964,0.028905,0.016001,0.004707,1.5876e-06,0.0049067,0.019764,0.041883,0.065252,0.082394,0.087441,0.079216,0.061811,0.041126,0.022131,0.0084267,0.0014346,5.7414e-05,0.0016251,0.0034488,0.0041847,0.003735,0.0025026,0.0011149,0.0001837,4.8442e-05,0.00063853,0.0015349,0.0023243,0.0027434,0.0025994,0.0018642,0.00081285,5.5599e-05,0.00032526,0.0020516,0.0052012,0.0093166,0.01351,0.016642,0.017701,0.016304,0.013005,0.0089115,0.0050667,0.0021788,0.00053429,6.6928e-06,0.00016836,0.00049913,0.00065426,0.00056512,0.00034026,0.00012533,1.1286e-05,1.496e-05,8.4114e-05,0.00013132,0.00010554,3.3826e-05,1.1137e-06,8.4723e-05,0.00031549,0.00067607,0.0010937,0.0014588,0.0016659,0.0016607,0.0014773,0.001198,0.00089157,0.00060753,0.00037896,0.00021703,0.00011711,6.3637e-05,3.7096e-05,2.3603e-05,1.6285e-05,1.1883e-05,8.9675e-06,7.1684e-06,6.3188e-06,6.4007e-06,8.0714e-06,1.3477e-05,2.7849e-05,6.1064e-05,0.00012611,0.0002318,0.00037285,0.00052863,0.00066848,0.00074969,0.00072767,0.00058764,0.00036499,0.00014224,1.2189e-05,2.9395e-05,0.00020216,0.00049234,0.00081686,0.0010812,0.0012115,0.00119,0.0010611,0.00087666,0.00067659,0.00050065,0.00037033,0.00028824,0.00025554,0.00027044,0.00032968,0.00043802,0.00059647,0.00078272,0.00096538,0.0011082,0.0011562,0.0010686,0.00084666,0.0005351,0.00023144,3.8315e-05,1.0584e-05,0.0001563,0.00043157,0.00075043,0.0010143,0.0011452,0.001131,0.0010113,0.00083051,0.00063148,0.00045264,0.00031506,0.00022513,0.00017867,0.00016644,0.0001843,0.00023611,0.00032806,0.00046026,0.00061862,0.0007739,0.00089049,0.00092953,0.00085657,0.00066782,0.00040729,0.0001604,1.6609e-05,2.2999e-05,0.00017774,0.0004332,0.00070142,0.00089039,0.00093898,0.00084761,0.00067296,0.00047182,0.00028484,0.00014422,5.8635e-05,1.7067e-05,2.6942e-06,1.4819e-10,1.585e-06,6.0198e-06,1.4541e-05,3.3195e-05,7.1797e-05,0.00014097,0.00024658,0.00036648,0.00044835,0.00044605,0.00033534,0.00014694,5.91e-06,0.00011052,0.00067014,0.0017538,0.0031863,0.0046226,0.0056361,0.0058748,0.0052288,0.0038491,0.0021739,0.00078643,7.3332e-05,9.9037e-05,0.00067238,0.0014673,0.0021645,0.0025215,0.0024583,0.0020915,0.0016005,0.0011217,0.00073217,0.00045064,0.00026465,0.00015572,9.9341e-05,7.1318e-05,5.6739e-05,4.824e-05,4.1978e-05,3.6943e-05,3.3261e-05,3.0394e-05,2.7867e-05,2.5521e-05,2.2964e-05,1.9945e-05,1.6704e-05,1.3922e-05,1.2437e-05,1.2697e-05,1.5504e-05,2.4385e-05,4.8294e-05,0.00010511,0.00022098,0.00041161,0.00065748,0.00090883,0.0010954,0.0011221,0.00091572,0.00050594,9.7e-05,4.6344e-05,0.00066016,0.0020303,0.0040059,0.0061744,0.007936
0.0049247,0.0051206,0.0056042,0.0063096,0.0070231,0.0073834,0.0070118,0.0057429,0.0037429,0.0015524,0.00011367,0.00054669,0.0035132,0.0085302,0.013983,0.017913,0.018845,0.016299,0.011078,0.0051778,0.0010339,6.1087e-05,0.001734,0.0041857,0.0055249,0.0048726,0.0027123,0.00055366,0.00013294,0.0021912,0.0057665,0.0088798,0.0098366,0.0082477,0.005096,0.0019352,0.00015543,0.00033382,0.0019004,0.0036447,0.0044991,0.0041495,0.0030502,0.0018214,0.00087637,0.00035397,0.00014803,0.00010188,0.00015024,0.00029513,0.00048754,0.00059259,0.00049256,0.00021055,2.5788e-06,0.00021542,0.0010368,0.0023735,0.0038035,0.004765,0.0048434,0.0039439,0.0024423,0.0010045,0.00014617,5.2536e-05,0.00059412,0.0014378,0.0022149,0.0026257,0.002568,0.0021719,0.0016376,0.0011182,0.00070043,0.00040464,0.0002163,0.00011209,6.1696e-05,3.7928e-05,2.5481e-05,1.7571e-05,1.1274e-05,6.1376e-06,2.4626e-06,3.3337e-07,2.8994e-07,2.9059e-06,8.012e-06,1.4904e-05,2.2655e-05,3.0706e-05,3.8995e-05,4.7336e-05,5.5466e-05,6.3401e-05,7.1206e-05,7.8895e-05,8.6517e-05,9.4017e-05,0.00010126,0.00010825,0.00011502,0.00012158,0.00012794,0.00013409,0.00013998,0.00014552,0.00015051,0.00015468,0.00015767,0.00015913,0.00015875,0.00015621,0.00015127,0.00014377,0.00013375,0.00012141,0.00010705,9.0924e-05,7.3288e-05,5.4696e-05,3.6269e-05,1.9635e-05,6.8071e-06,2.9394e-07,3.1289e-06,1.823e-05,4.6474e-05,8.5277e-05,0.00013035,0.00017866,0.00023033,0.0002895,0.00036434,0.00047307,0.00065734,0.00098994,0.0015686,0.0024921,0.0038041,0.0054248,0.0071326,0.0085413,0.0090841,0.0082449,0.0059835,0.0029884,0.00057612,0.0001444,0.0025328,0.0076656,0.014295,0.020217,0.023229,0.022162,0.017559,0.011323,0.0055069,0.001568,4.6564e-05,0.0004049,0.0014751,0.0021632,0.0020289,0.0013481,0.00060188,0.00012389,6.161e-07,8.3415e-05,0.00016334,0.00012354,2.2703e-05,1.7987e-05,0.00019391,0.00051735,0.00085663,0.0010761,0.0011074,0.00093058,0.000612,0.00028646,6.2992e-05,1.7809e-06,9.6831e-05,0.00029116,0.00051906,0.00069982,0.00076428,0.0006891,0.00049664,0.00026501,8.4187e-05,2.6599e-06,3.3855e-05,0.0001543,0.00030676,0.00042396,0.00045581,0.00040336,0.00030478,0.00019548,0.00010176,3.9118e-05,8.2271e-06,7.6465e-08,1.6401e-06,3.6333e-06,3.6327e-06,2.33e-06,9.026e-07,8.3497e-08,2.0098e-07,1.6261e-06,4.8899e-06,1.1328e-05,2.4581e-05,5.2427e-05,0.00010748,0.00020412,0.00034988,0.00053516,0.00073357,0.00090854,0.0010106,0.00098832,0.00082303,0.00055094,0.00026091,5.6543e-05,2.6931e-06,0.00011504,0.00036156,0.00066286,0.00092393,0.0010676,0.00107,0.00096887,0.00081139,0.00063489,0.0004776,0.00036094,0.00028864,0.00026352,0.0002858,0.00035362,0.00047243,0.00064305,0.00084164,0.001035,0.0011851,0.0012349,0.0011427,0.0009094,0.00058118,0.00025844,4.7752e-05,7.3155e-06,0.00014771,0.00042655,0.00075757,0.0010401,0.0011925,0.0011987,0.0010957,0.00092579,0.0007313,0.00055162,0.00041001,0.00031604,0.00026888,0.00026148,0.00029106,0.00036254,0.00048167,0.00064583,0.00083619,0.0010179,0.0011506,0.0011908,0.0011003,0.00087433,0.00056017,0.00025112,4.7451e-05,5.8457e-06,0.0001314,0.00038183,0.00067097,0.00090278,0.0010068,0.00097167,0.00084438,0.00067475,0.00049726,0.00034354,0.00022928,0.000154,0.00011227,9.266e-05,8.2758e-05,7.7672e-05,7.5826e-05,7.4851e-05,7.5829e-05,8.0294e-05,8.7588e-05,0.00010228,0.00013398,0.00019184,0.00028709,0.00042614,0.00059404,0.00076494,0.00090955,0.00097898,0.00092775,0.00074614,0.00047138,0.00019715,2.6622e-05,1.7869e-05,0.00018226,0.00047747,0.00081366,0.001085,0.0012106,0.0011848,0.0010603,0.00088972,0.00071535,0.00057379,0.00048718,0.00046655,0.00051698,0.00063141,0.00078612,0.00094928,0.0010841,0.0011418,0.0010744,0.0008669,0.00056014,0.00025179,4.7986e-05,5.3753e-06,0.00012624,0.00036448,0.00063169,0.00083247,0.00089993,0.00082942,0.00067393,0.00048764,0.00030952,0.00017139,8.3035e-05,3.5535e-05,1.4812e-05,6.7454e-06,2.8977e-06,7.7616e-07,1.2196e-08,2.883e-06,1.6473e-05,5.0692e-05,0.00011294,0.00018953,0.00024095,0.00023183,0.00014922,3.4426e-05,1.5464e-05,0.00028672,0.0010437,0.002326,0.0039245,0.0054674,0.0065093,0.0066919,0.0059152,0.0043523,0.0024775,0.00092012,9.9646e-05,8.7721e-05,0.00068326,0.0015462,0.0023478,0.002836,0.0029168,0.0027012,0.0023729,0.0020663,0.0018515,0.0017374,0.0016983,0.0017172,0.0017712,0.0017947,0.0017056,0.0014601,0.0010782,0.00065,0.00028938,6.5453e-05,6.0712e-07,7.875e-05,0.00023572,0.00038391,0.00044974,0.00041257,0.00030764,0.00017715,5.9876e-05,1.4125e-06,3.3679e-05,0.00015929,0.0003402,0.0005192,0.0006549,0.00070127,0.00061809,0.00041865,0.00017499,1.2772e-05,5.6629e-05,0.00037724,0.0010163,0.0019606,0.0031174,0.0043445,0.0054612,0.0063542,0.0070119,0.0073492,0.0072193,0.0065796,0.0054893,0.0041016,0.0026491,0.0013388,0.00038312,2.2522e-06,0.00025673,0.0010052,0.0019876,0.002934,0.0036567,0.0040247,0.0039892,0.0036647,0.0032386,0.0028472,0.0025622,0.0023902,0.0022931,0.0022447,0.0022236,0.0021657,0.0019901,0.0016591,0.0012002,0.00071033,0.00030908,6.6382e-05,1.3645e-06,9.3266e-05,0.00027183,0.00044276,0.00052602,0.00049648,0.0003887,0.00024524,0.00010474,1.4483e-05,9.5259e-06,9.6479e-05,0.00024269,0.00039454,0.00051162,0.00055069,0.00047569,0.00030204,0.00010246,2.0206e-07,0.00011366,0.00050908,0.0012262,0.0022474,0.003475,0.0047627,0.0059263,0.0068521,0.0075306,0.0078757,0.0077358,0.0070665,0.0059266,0.0044713,0.0029379,0.001537,0.00048588,1.437e-05,0.00019454,0.00089296,0.0018533,0.0028052,0.0035577,0.0039761,0.0040054,0.0037516,0.0033963,0.0030749,0.0028628,0.00277,0.0027557,0.0027858,0.0028302,0.002815,0.0026515,0.0023011,0.001792,0.0012234,0.00072413,0.00036645,0.00015369,5.4639e-05,2.1663e-05,1.7604e-05,3.2913e-05,7.3946e-05,0.00013197,0.00017273,0.00016261,9.451e-05,1.5994e-05,1.4457e-05,0.00017015,0.00052725,0.0010447,0.0016045,0.0020703,0.0023228,0.0023389,0.0021902,0.0019459,0.0016802,0.0014803,0.0013919,0.0014378,0.0016464,0.0020174,0.002524,0.0031356,0.0037479,0.0041702,0.0042408,0.0038733,0.0030903,0.0020655,0.0010386,0.00027017,4.3974e-07,0.00030286,0.0010535,0.0020086,0.0029018,0.0035405,0.0038029,0.0036588,0.00322,0.0026533,0.0020857,0.0015973,0.0012159,0.00093211,0.00073459,0.00061159,0.00054832,0.00054136,0.00059987,0.00073716,0.0009751,0.0013516,0.0019151,0.0027025,0.0036718,0.0046096,0.0051548,0.0049874,0.0040122,0.0024361,0.00080364,3.247e-07,0.0010486,0.0044926,0.0097421,0.015155,0.018832,0.019399,0.016493,0.011,0.004979,0.00088961,0.00012046,0.0020741,0.0047966,0.0063156,0.0056936,0.0033837,0.00089872,2.305e-05,0.0015902,0.0047435,0.0075877,0.0084752,0.0070169,0.0041557,0.0013878,3.562e-05,0.00059916,0.0024457,0.0043338,0.0051957,0.0047492,0.0035006,0.0021165,0.0010417,0.00043227,0.00017997,0.00011212,0.00014352,0.00025979,0.00040925,0.00047108,0.0003524,0.00010642,1.1215e-05,0.0004152,0.0014918,0.0031186,0.0048268,0.0060023,0.0061852,0.0052437,0.003545,0.0017859,0.00053032,1.5859e-05,0.00016754,0.00069637,0.0012633,0.0015875,0.0015617,0.0012832,0.00091342,0.00057218,0.0003197,0.00016089,7.5121e-05,3.8352e-05,2.8756e-05,3.3311e-05,4.6617e-05,6.4397e-05,8.1489e-05,9.5421e-05,0.00010738,0.00011924,0.00013481,0.00016555,0.00023782,0.00040194,0.00073831,0.0013429,0.0022757,0.0034961,0.0048344,0.0059659,0.006402,0.0057036,0.0038716,0.001585,9.1348e-05,0.00067144,0.0040342,0.0099712,0.017105,0.023151,0.025905,0.024278,0.018965,0.012052,0.0057438,0.0015686,3.106e-05,0.00050055,0.0017327,0.0025997,0.0026378,0.0020947,0.0014209,0.00091732,0.00069937,0.00077527,0.0011846,0.0020292,0.0033032,0.004664,0.0055004,0.0052448,0.0037505,0.0016635,0.00018619,0.00026736,0.002032,0.0046948,0.006944,0.0075685,0.0060768,0.0032133,0.00070003,5.986e-05,0.0016699,0.0047252,0.0077771,0.0093794,0.0086679,0.0058985,0.0025174,0.00030039,0.00030164,0.0025343,0.0062004,0.010045,0.01274,0.013349,0.011793,0.0088272,0.0054713,0.0025704,0.00068011,4.2862e-06,0.00037885,0.0013665,0.002462,0.0033087,0.0037405,0.0037195,0.0033238,0.0027164,0.0020637,0.0014843,0.0010298,0.00069628,0.00046231,0.00030836,0.00021213,0.00015097,0.00010888,7.66e-05,4.986e-05,2.8371e-05,1.2753e-05,3.1093e-06,1.3239e-08,4.0361e-06,1.4819e-05,3.1158e-05,5.1355e-05,7.4031e-05,9.8349e-05,0.00012334,0.00014803,0.0001719,0.00019463,0.0002161,0.00023639,0.00025547,0.00027319,0.00028944,0.00030413,0.00031695,0.00032751,0.00033531,0.00033977,0.0003403,0.0003364,0.00032763,0.00031363,0.00029428,0.00026978,0.00024064,0.00020757,0.00017141,0.00013319,9.4591e-05,5.83e-05,2.7752e-05,6.8691e-06,9.5179e-08,1.2294e-05,4.7658e-05,0.00010698,0.00018595,0.00027792,0.00037806,0.00048599,0.000607,0.0007521,0.00094605,0.0012441,0.0017364,0.0025327,0.0037314,0.0053585,0.0073018,0.0093,0.010919,0.011528,0.010551,0.00792,0.0043425,0.0012027,4.3386e-06,0.0017165,0.0064157,0.012994,0.019294,0.023019,0.022799,0.018933,0.013088,0.0071564,0.0026315,0.00034004,9.6431e-05,0.00090116,0.0015834,0.0015172,0.00085721,0.00015039,0.00012856,0.0016064,0.0051375,0.010625,0.01704,0.022922,0.027048,0.028089,0.024795,0.017315,0.0079771,0.0010766,0.0010694,0.010327,0.028669,0.052969,0.076913,0.093048,0.095859,0.084747,0.064475,0.041483,0.0211,0.0070713,0.00068884,0.00052525,0.0035235,0.0066827,0.0085023,0.0088259,0.0080023,0.0065961,0.0051556,0.0040174,0.0033323,0.0030696,0.0030644,0.0031655,0.0033085,0.0034716,0.0036508,0.0038588,0.0041383,0.0046184,0.0055038,0.0069678,0.0090123,0.011343,0.013407,0.014565,0.014115,0.01148,0.0069109,0.0021073,7.6177e-06,0.0034031,0.013324,0.028694,0.046427,0.061672,0.069364,0.066502,0.054049,0.036725,0.019926,0.0073906,0.00094666,0.00037869,0.0036329,0.0078099,0.010578,0.011229,0.010237,0.0083072,0.0061088,0.0041531,0.0026966,0.0017916,0.0013288,0.0011253,0.0010425,0.0010131,0.00099938,0.00097827,0.00093805,0.00086153,0.00074223,0.00060237,0.00046765,0.00034981,0.00025265,0.00017445,0.0001116,6.332e-05,2.946e-05,8.869e-06,3.978e-07,2.4935e-06,1.3388e-05,3.1606e-05,5.5827e-05,8.5434e-05,0.00012158,0.00017026,0.00024642,0.00037365,0.00058029,0.00089494,0.0013369,0.0019039,0.0025601,0.0032004,0.0036276,0.0036314,0.0031168,0.002179,0.0011063,0.00027562,3.8319e-06,0.00042239,0.001342,0.0022687,0.002665,0.0022718,0.0013139,0.00037141,4.887e-07,0.00042713,0.0013853,0.0022238,0.0023092,0.0014955,0.00039206,2.9796e-05,0.0010691,0.0032841,0.0056448,0.0068859,0.0062207,0.0038684,0.0011848,1.0639e-07,0.0012945,0.0044014,0.0074856,0.0087368,0.0074267,0.0042787,0.0011226,2.6845e-05,0.0019677,0.0060243,0.01002,0.011905,0.010936,0.0078606,0.0041522,0.0012788,5.7535e-05,0.00023301,0.00085834,0.0010673,0.0006755,0.0001479,2.9599e-05,0.00055884,0.0015306,0.0024133,0.0026905,0.002157,0.0011279,0.00024962,1.6988e-05,0.00056804,0.0017036,0.0030346,0.004187,0.0049021,0.0051413,0.0050868,0.0049582
4.2978e-05,1.8743e-05,4.3771e-06,2.9255e-08,5.7303e-06,2.0271e-05,4.1465e-05,6.6663e-05,9.3804e-05,0.00012148,0.00014816,0.00017268,0.0001945,0.00021322,0.00022876,0.00024118,0.00025037,0.00025631,0.00025925,0.00025927,0.00025644,0.00025095,0.00024289,0.00023246,0.00021997,0.00020565,0.00018971,0.00017246,0.00015427,0.00013554,0.00011662,9.7669e-05,7.8717e-05,5.997e-05,4.204e-05,2.5841e-05,1.2468e-05,3.2855e-06,5.4077e-09,4.3109e-06,1.646e-05,3.4173e-05,5.3953e-05,7.3371e-05,9.2369e-05,0.00011355,0.00014205,0.00018933,0.00028314,0.00047701,0.00085235,0.0015025,0.0024822,0.003742,0.0051034,0.0062377,0.0066552,0.0059189,0.0040349,0.0016854,0.0001168,0.00060392,0.0038439,0.0096164,0.016541,0.022343,0.024845,0.023003,0.017574,0.010701,0.004635,0.00092024,2.9598e-05,0.001242,0.0031695,0.0045181,0.00473,0.0040949,0.0031851,0.0024415,0.0021171,0.0023299,0.0032262,0.0050804,0.0080809,0.011908,0.015594,0.017751,0.017144,0.013551,0.0080635,0.0027299,3.6511e-05,0.0020434,0.0093683,0.02054,0.032322,0.041119,0.044346,0.041117,0.032437,0.020893,0.0099565,0.0026239,1.9899e-05,0.0012946,0.0044569,0.0073721,0.0085435,0.0074933,0.0049253,0.0022337,0.00049378,1.4232e-06,0.00039877,0.0010362,0.0013582,0.0011202,0.00052415,5.8751e-05,8.7076e-05,0.00065955,0.001557,0.0024514,0.0030538,0.0031654,0.0027841,0.0021186,0.0014085,0.00081037,0.00039107,0.00014312,2.7881e-05,1.2911e-09,1.3475e-05,3.7989e-05,6.1733e-05,8.2118e-05,9.9996e-05,0.00011511,0.00012601,0.00013323,0.00013735,0.00013663,0.0001292,0.00011449,9.33e-05,6.8223e-05,4.2772e-05,2.0401e-05,4.9091e-06,8.1964e-08,8.2937e-06,2.9965e-05,6.4271e-05,0.00010979,0.00016478,0.00022771,0.00029886,0.0003847,0.00050018,0.00066217,0.00088166,0.0011625,0.0014981,0.0018658,0.0022191,0.0024628,0.0024667,0.002162,0.0016011,0.00092234,0.00031629,5.8856e-06,0.00024176,0.001252,0.0031117,0.005802,0.009411,0.014114,0.02,0.026772,0.033498,0.039039,0.042437,0.042425,0.037624,0.027897,0.015369,0.0044333,5.4263e-08,0.0050371,0.019851,0.04173,0.064676,0.081271,0.085753,0.077067,0.059403,0.038732,0.020076,0.0070183,0.00084807,0.00028368,0.0024951,0.004725,0.0056567,0.0052448,0.003926,0.0023299,0.0010155,0.00025357,8.1244e-06,3.5568e-05,0.00011868,0.0001616,0.00013538,6.2006e-05,3.2203e-06,3.6014e-05,0.00020658,0.0004986,0.00087299,0.0012746,0.0016208,0.0018348,0.0018638,0.0017105,0.0014468,0.0011443,0.00084765,0.0005977,0.00041425,0.00029495,0.0002348,0.00022499,0.00025632,0.00032959,0.00044502,0.00058423,0.00072128,0.00082597,0.00085185,0.0007657,0.00057293,0.00031986,9.8685e-05,8.681e-07,7.1233e-05,0.00030865,0.00065915,0.0010292,0.0013162,0.0014426,0.0014025,0.0012448,0.0010206,0.00077865,0.00056189,0.00039392,0.00028199,0.00022114,0.00020016,0.00021288,0.00026159,0.00035107,0.00048033,0.00063472,0.00078502,0.00089604,0.00092955,0.00085187,0.00065995,0.00039846,0.00015322,1.3824e-05,2.7368e-05,0.00019199,0.00045953,0.00074081,0.00094219,0.0010006,0.00091497,0.00074159,0.00053724,0.00034265,0.00019126,9.3607e-05,4.0397e-05,1.6659e-05,7.1564e-06,2.6662e-06,4.5036e-07,2.0658e-07,4.7135e-06,2.1696e-05,6.1528e-05,0.00013171,0.00021732,0.00027637,0.0002708,0.00018428,5.4119e-05,5.3561e-06,0.00023066,0.00092634,0.0021378,0.0036645,0.0051434,0.006138,0.0062988,0.0055312,0.0040121,0.0022145,0.00075866,5.0849e-05,0.00015038,0.00084459,0.0017847,0.0026371,0.0031468,0.0032216,0.0029809,0.0026185,0.0022758,0.0020274,0.0018821,0.0018123,0.0017983,0.0018142,0.0017926,0.0016538,0.0013619,0.00094779,0.00051249,0.00017666,1.2242e-05,3.7949e-05,0.00022157,0.00047609,0.00069659,0.00080217,0.00077455,0.00065737,0.00049939,0.00033741,0.00020484,0.00011503,6.2741e-05,3.7404e-05,2.6361e-05,1.9967e-05,1.4722e-05,9.0017e-06,2.3551e-06,5.4061e-07,1.3945e-05,5.1939e-05,0.00010684,0.00014653,0.00014025,7.8977e-05,6.8236e-06,5.0379e-05,0.00039976,0.0012426,0.0026054,0.0042666,0.0058468,0.006896,0.0070556,0.0062292,0.0045966,0.0026421,0.001008,0.00012493,7.0594e-05,0.00064603,0.0015096,0.0023283,0.0028445,0.0029574,0.0027727,0.0024722,0.0021908,0.0020011,0.0019143,0.0019058,0.0019588,0.0020498,0.0021083,0.0020429,0.001801,0.0013962,0.0009179,0.00048634,0.0001779,2.1501e-05,1.1098e-05,9.4658e-05,0.00019428,0.00024259,0.00021794,0.00014738,6.6136e-05,8.1837e-06,1.0938e-05,9.671e-05,0.00025921,0.0004529,0.0006196,0.0007228,0.0007232,0.00059145,0.00035647,0.00011004,2.1005e-07,0.00016824,0.00069579,0.0016346,0.0029712,0.0045975,0.0063257,0.0078849,0.0090809,0.0098852,0.010238,0.010044,0.0093106,0.0081229,0.0066871,0.0053041,0.0041202,0.0031224,0.0022856,0.0015653,0.00092759,0.00040242,5.2707e-05,0.00010334,0.001148,0.0041099,0.0099084,0.018777,0.029891,0.041765,0.052177,0.058161,0.057293,0.049083,0.035694,0.02127,0.0095116,0.002309,1.3346e-06,0.0015321,0.004819,0.0076743,0.008859,0.0085208,0.0074425,0.0062538,0.0053413,0.0049321,0.0051745,0.0062043,0.0080227,0.010304,0.012449,0.013815,0.013928,0.01263,0.010098,0.0068696,0.0037656,0.0014773,0.00026894,8.7029e-06,0.00034156,0.00087913,0.0013071,0.0014597,0.0013595,0.0011244,0.00086219,0.00063898,0.000476,0.00037089,0.00032021,0.00031785,0.00035073,0.00040297,0.0004592,0.00050755,0.0005471,0.00058727,0.0006383,0.00071182,0.00083233,0.0010459,0.0014193,0.0020266,0.0029136,0.0040433,0.005275,0.0063993,0.0071488,0.0072141,0.0063905,0.0047617,0.0027588,0.0010225,8.75e-05,0.00018468,0.0012385,0.0028725,0.0045161,0.0056324,0.0059363,0.0055109,0.0046412,0.0035876,0.0025707,0.0017522,0.0011841,0.00084884,0.00069962,0.00067997,0.00075767,0.00092941,0.0011822,0.0014808,0.001785,0.0020358,0.0021703,0.0021579,0.0019845,0.001662,0.0012523,0.00082734,0.00044813,0.00016793,1.9219e-05,1.9641e-05,0.0001762,0.00048211,0.00092033,0.0014548,0.0020357,0.0026058,0.0030866,0.0033956,0.0034761,0.0033105,0.0029426,0.0024577,0.0019326,0.0014297,0.00099927,0.00066579,0.00043068,0.00027872,0.00018406,0.00012405,8.5412e-05,6.0066e-05,4.2695e-05,3.0253e-05,2.0659e-05,1.2872e-05,7.0742e-06,3.3923e-06,1.3698e-06,4.1697e-07,5.8213e-08,7.5072e-09,1.2892e-07,3.532e-07,7.6637e-07,1.833e-06,4.7473e-06,1.1705e-05,2.5442e-05,4.8133e-05,8.1019e-05,0.00012444,0.00017421,0.00021514,0.00022484,0.00019277,0.00013416,7.897e-05,4.6816e-05,4.085e-05,7.2566e-05,0.00021651,0.0007162,0.0020952,0.0050835,0.010196,0.017191,0.024964,0.031776,0.035341,0.033438,0.02546,0.013788,0.0035309,6.9605e-05,0.0062709,0.021683,0.042627,0.06265,0.074666,0.0742,0.061989,0.043401,0.024609,0.0099975,0.0018406,7.7772e-05,0.0025092,0.0059544,0.0079425,0.0077962,0.006068,0.0036355,0.0014255,0.00016796,0.00012385,0.00099264,0.0021428,0.0030471,0.003392,0.0030329,0.0020869,0.00094849,0.00014586,6.6646e-05,0.00078239,0.0021094,0.0036671,0.0049678,0.0056051,0.0054219,0.0045911,0.0034545,0.0022996,0.0013331,0.0006654,0.00028363,0.00010719,4.4116e-05,2.846e-05,3.42e-05,5.883e-05,9.8313e-05,0.00013444,0.00014764,0.00012791,8.3815e-05,3.7772e-05,7.1034e-06,5.3206e-07,8.5725e-06,8.3084e-06,8.5994e-09,2.818e-05,0.00015226,0.00038661,0.00068821,0.00095768,0.0010555,0.00089203,0.00051072,0.00012246,1.0001e-05,0.00032919,0.001045,0.0019691,0.0028289,0.0033717,0.0034302,0.0030108,0.0023133,0.0015709,0.00093567,0.00047621,0.00019307,5.0768e-05,3.375e-06,3.4666e-06,1.8429e-05,3.467e-05,4.8426e-05,5.9611e-05,6.8333e-05,7.4612e-05,7.9834e-05,8.4578e-05,8.6505e-05,8.2103e-05,6.9275e-05,4.8564e-05,2.3525e-05,3.1171e-06,5.88e-06,5.8749e-05,0.00018578,0.00039021,0.0006476,0.00091335,0.0011212,0.0011944,0.0010874,0.00081697,0.00047009,0.00017127,1.3599e-05,3.3169e-05,0.0002047,0.00043948,0.00062584,0.00067131,0.00054979,0.00032676,0.0001095,2.1744e-06,5.6099e-05,0.00022579,0.00040172,0.00045233,0.00030685,6.7877e-05,4.2867e-05,0.0006659,0.0022364,0.0047184,0.0077506,0.010622,0.012424,0.012434,0.010468,0.0071681,0.0037241,0.0011589,3.6006e-05,0.00042768,0.0019037,0.0037038,0.0050453,0.0055168,0.0052007,0.0043885,0.003369,0.0023823,0.001577,0.00101,0.00066733,0.00048339,0.00038615,0.00032949,0.00028993,0.00025557,0.00022255,0.0001899,0.0001564,0.00012484,0.00010238,9.5477e-05,0.00010902,0.0001485,0.00021711,0.0003079,0.00040216,0.00047341,0.00048622,0.00040692,0.00023987,5.9811e-05,7.6442e-06,0.00022562,0.00077248,0.0015963,0.0025288,0.0032997,0.0036294,0.0033503,0.0025209,0.0014467,0.00051642,3.295e-05,0.00012564,0.00069086,0.0014345,0.0019842,0.0020471,0.0015857,0.00083316,0.00018221,2.0243e-05,0.00053514,0.0016549,0.0030729,0.004322,0.004972,0.0048043,0.0039059,0.0026408,0.0014169,0.00051177,5.8775e-05,3.4186e-05,0.00028233,0.00059689,0.00081592,0.0008918,0.00085753,0.00075912,0.00063968,0.00053217,0.00045237,0.00040733,0.00039693,0.00041118,0.00044009,0.00048223,0.00054157,0.00063136,0.00078518,0.0010561,0.0015103,0.0022189,0.0032208,0.0044664,0.0057976,0.0069285,0.0074262,0.0068716,0.0051676,0.0027547,0.00063189,7.3206e-05,0.0021531,0.0073599,0.015223,0.024209,0.032186,0.037073,0.037575,0.033689,0.026467,0.017636,0.0092476,0.0030544,0.00015124,0.0009264,0.0049907,0.011344,0.018606,0.025246,0.029901,0.03141,0.029042,0.023129,0.015171,0.0073616,0.0018634,1.4686e-06,0.0019195,0.0064768,0.011441,0.014475,0.01427,0.011144,0.006708,0.0027338,0.00041921,8.6809e-05,0.0010976,0.0023315,0.0028664,0.0024734,0.001587,0.00073821,0.00021133,2.0642e-05,1.3059e-06,4.8711e-06,9.1182e-07,4.7146e-05,0.00016244,0.00025406,0.00021475,6.0473e-05,1.9139e-05,0.0003982,0.0013561,0.0027832,0.0042504,0.0051994,0.005227,0.0042507,0.0026601,0.001134,0.00019484,2.9474e-05,0.00050818,0.0012969,0.002027,0.0024015,0.0023217,0.0019186,0.0013919,0.00089296,0.00050546,0.0002462,9.685e-05,2.8089e-05,4.779e-06,2.7953e-08,1.4204e-06,4.8769e-06,9.6121e-06,1.5321e-05,2.1154e-05,2.6823e-05,3.2192e-05,3.6033e-05,3.6861e-05,3.385e-05,2.7145e-05,1.8602e-05,1.0921e-05,5.5848e-06,2.4928e-06,8.5234e-07,5.6499e-08,4.8876e-07,4.3815e-06,1.7942e-05,5.8088e-05,0.00016323,0.00039696,0.00082623,0.0014665,0.0022359,0.0029666,0.0034319,0.0033815,0.0026756,0.0014787,0.00034534,3.9235e-05,0.0011294,0.0037144,0.0073752,0.011214,0.014067,0.014937,0.013498,0.010328,0.0065332,0.0031606,0.00090823,2.3135e-05,0.00031346,0.0012707,0.0023127,0.0030646,0.0034351,0.0035168,0.0034638,0.0034015,0.0034214,0.0035959,0.0039407,0.0043994,0.0048559,0.0051228,0.0050049,0.0044154,0.0033961,0.002132,0.00094548,0.00016794,3.8059e-05,0.00064392,0.0018898,0.0035571,0.0053576,0.0070069,0.0083325,0.0092511,0.0097183,0.0097235,0.0092397,0.0082502,0.0068358,0.0051509,0.0033861,0.0017781,0.00058269,2.3976e-05,0.00020306,0.0010153,0.0021957,0.0034246,0.0044165,0.0049765,0.0050147,0.0045799,0.0038526,0.0030356,0.002271,0.0016323,0.0011366,0.00077309,0.00052415,0.00036231,0.0002555,0.00018011,0.00012293,7.7666e-05
0.00030144,0.00042415,0.00060052,0.00085966,0.0012283,0.0017262,0.0023585,0.0031068,0.0039184,0.0046684,0.0051536,0.0051871,0.0046876,0.003705,0.0024328,0.0011683,0.00025557,1.6852e-05,0.00059595,0.0018889,0.0036104,0.0053658,0.0067902,0.0076453,0.0078522,0.0075769,0.0071163,0.0067041,0.0065832,0.007069,0.0084654,0.011064,0.015036,0.02006,0.025288,0.029611,0.031456,0.029072,0.021937,0.011834,0.0029178,0.00012963,0.0066644,0.022979,0.046317,0.070491,0.087913,0.092727,0.083821,0.065427,0.043665,0.023716,0.0092889,0.0017822,9.6827e-06,0.001263,0.0028765,0.0035141,0.0030672,0.0019563,0.00080012,0.00010488,5.5733e-05,0.00050885,0.0011338,0.0016622,0.0019352,0.0018638,0.0014711,0.00088309,0.00030949,7.1639e-06,0.00020403,0.0010509,0.0025444,0.0045036,0.0066246,0.0085175,0.0098412,0.010414,0.01023,0.0095201,0.0086338,0.0078318,0.0073657,0.0075422,0.0086302,0.010869,0.014382,0.018834,0.023407,0.027051,0.028295,0.025552,0.018492,0.0090677,0.0015253,0.00076776,0.0098448,0.028967,0.054963,0.081147,0.099572,0.10432,0.094493,0.074703,0.051425,0.03002,0.01412,0.0048743,0.0009781,3.968e-05,2.5458e-05,3.7229e-05,1.8328e-06,2.6762e-05,9.0531e-05,6.7347e-05,5.3713e-07,0.00031102,0.0016759,0.004541,0.0087129,0.013346,0.017153,0.018887,0.017976,0.014801,0.010458,0.0061824,0.002863,0.00086356,7.2889e-05,4.9778e-05,0.00026303,0.00036103,0.00027007,0.00010103,2.0394e-06,6.6958e-05,0.0003108,0.00065442,0.00095683,0.0011031,0.0010645,0.00089752,0.00067324,0.00042965,0.00020965,6.5105e-05,7.9144e-06,1.8685e-08,9.258e-07,2.9342e-05,0.00019952,0.00083441,0.0025991,0.006342,0.01246,0.020053,0.027024,0.031086,0.029936,0.02204,0.0095699,0.00041306,0.0062496,0.0359,0.089397,0.15855,0.22798,0.27638,0.28453,0.2456,0.17219,0.091811,0.030288,0.0015864,0.0078345,0.039722,0.079671,0.10893,0.1165,0.10412,0.080681,0.054728,0.032351,0.016566,0.0074156,0.0031941,0.001733,0.0015157,0.0019047,0.0026266,0.0033692,0.0037707,0.003598,0.0028281,0.0016938,0.00063614,5.6691e-05,9.2624e-05,0.00059018,0.0012421,0.0017773,0.0020668,0.0021011,0.0019322,0.0016471,0.001337,0.0010667,0.00086797,0.00074075,0.00066228,0.00060999,0.00057227,0.00054242,0.00051557,0.00048762,0.0004526,0.00040783,0.00035839,0.00031172,0.0002732,0.00024587,0.00023099,0.00023166,0.00025512,0.00031008,0.00040323,0.00053413,0.0006878,0.00083753,0.0009523,0.00099213,0.00091704,0.00071949,0.00044283,0.00017668,1.8897e-05,2.508e-05,0.00020075,0.00050246,0.00084033,0.0011125,0.0012389,0.0011994,0.0010423,0.00082742,0.00060386,0.00041602,0.00028426,0.00020793,0.00018502,0.00021553,0.00030591,0.00047426,0.00073156,0.0010531,0.0013917,0.0016835,0.0018324,0.0017599,0.0014529,0.00097576,0.00047944,0.0001246,9.25e-09,0.00012314,0.00043609,0.00081916,0.0011345,0.0012779,0.0012386,0.0010764,0.00085345,0.00062264,0.00042425,0.00027611,0.00018037,0.00012801,0.000103,9.2035e-05,8.8013e-05,8.6876e-05,8.6439e-05,8.6615e-05,8.7643e-05,8.9959e-05,9.6074e-05,0.00011137,0.00014415,0.00020519,0.00030495,0.00044635,0.00061667,0.0007894,0.00093037,0.00099436,0.00093629,0.00074526,0.00046488,0.0001889,2.1468e-05,2.4885e-05,0.00021088,0.00054055,0.00092483,0.0012589,0.0014566,0.0014892,0.0013963,0.0012288,0.0010277,0.00083891,0.00069215,0.00059757,0.00056523,0.00059863,0.00069254,0.00084808,0.0010587,0.0012883,0.0014948,0.0016346,0.0016456,0.0014863,0.0011651,0.00074098,0.00033273,6.4965e-05,6.8662e-06,0.00017371,0.00052183,0.00095798,0.0013692,0.0016574,0.001794,0.0018131,0.0017555,0.0016601,0.0015627,0.0014816,0.0014281,0.0014111,0.0014253,0.0014601,0.0015139,0.0015895,0.0017036,0.0019046,0.0022594,0.0028249,0.003621,0.0045966,0.0056154,0.0064799,0.0069193,0.0065832,0.0052425,0.0031304,0.0010375,8.2502e-06,0.00089232,0.0041051,0.0095761,0.016554,0.023612,0.029377,0.033313,0.035748,0.037296,0.038183,0.038153,0.037093,0.035107,0.031823,0.026382,0.018419,0.0091701,0.0018632,0.00032866,0.0069652,0.022115,0.043549,0.065953,0.082331,0.086907,0.078423,0.060852,0.040055,0.02109,0.0076253,0.0010572,0.00018581,0.0021882,0.0042691,0.0050602,0.0045003,0.0030878,0.0015325,0.00042827,8.8064e-06,0.00013145,0.00044467,0.00067146,0.00069954,0.00053525,0.00027951,6.8436e-05,7.9999e-07,8.6471e-05,0.00024289,0.00034707,0.00031259,0.00016351,2.3985e-05,1.9601e-05,0.00017892,0.00040976,0.00053811,0.00040194,8.4457e-05,8.6897e-05,0.0011425,0.0037876,0.0080565,0.013487,0.019073,0.02321,0.024366,0.022041,0.017052,0.011006,0.0054727,0.0015788,2.0098e-05,0.00081308,0.0031496,0.0058514,0.0079901,0.0091679,0.009342,0.0085956,0.0071875,0.0055437,0.0040361,0.0028416,0.0019649,0.0013298,0.00087094,0.00055422,0.0003463,0.00020885,0.00011372,4.7912e-05,9.672e-06,4.2591e-07,1.7698e-05,5.6565e-05,0.00011245,0.00017964,0.00025056,0.00031685,0.00037141,0.0004105,0.00043281,0.00043738,0.00042413,0.00039551,0.000356,0.0003098,0.00025944,0.00020599,0.00015023,9.4776e-05,4.4969e-05,9.11e-06,2.3342e-06,4.9441e-05,0.0001798,0.0004151,0.00075286,0.0011597,0.0015738,0.0019017,0.0020438,0.0019526,0.0016569,0.0012472,0.00083567,0.00050279,0.0002845,0.00018228,0.00017734,0.00026741,0.00047345,0.00079026,0.0011411,0.0013919,0.0013718,0.00094823,0.00028783,1.9063e-05,0.00099562,0.0038487,0.0086915,0.015122,0.022105,0.027827,0.030393,0.028942,0.024041,0.017228,0.010193,0.0043414,0.0008045,6.5579e-05,0.0016001,0.0042459,0.006884,0.0088369,0.0098081,0.0097013,0.0086962,0.0072464,0.005802,0.0046232,0.0037835,0.0032392,0.0029263,0.0028036,0.0028122,0.0028546,0.0028246,0.002623,0.0021847,0.0015367,0.00081395,0.00022936,6.0005e-09,0.00023576,0.00089841,0.001814,0.0026954,0.0032366,0.0032414,0.0027265,0.0019187,0.0010951,0.00045235,8.9503e-05,1.2915e-06,8.94e-05,0.00021556,0.00027375,0.00024131,0.00015499,6.2782e-05,6.2235e-06,1.1005e-05,8.1576e-05,0.00019812,0.00032147,0.00041991,0.00048467,0.00052426,0.00055956,0.00061323,0.00070771,0.00089481,0.0012849,0.0020466,0.0033702,0.0053471,0.0077803,0.010171,0.011883,0.012154,0.010296,0.0064234,0.0020653,7.0938e-07,0.0029351,0.01192,0.025994,0.042266,0.056134,0.062813,0.059536,0.047382,0.031013,0.015652,0.0048437,0.00020367,0.001288,0.0058437,0.010836,0.01391,0.014455,0.013087,0.010632,0.0078595,0.0053664,0.0034641,0.0022269,0.0015283,0.0011472,0.00091844,0.0007636,0.00064122,0.00052764,0.00041164,0.00028451,0.00015416,4.9179e-05,6.2933e-07,3.8164e-05,0.00018831,0.00046275,0.00084416,0.0012799,0.001695,0.0019977,0.0020916,0.0019245,0.0015258,0.0010081,0.00052188,0.0001759,1.3801e-05,2.4605e-05,0.000141,0.00026971,0.00033533,0.00031619,0.00024379,0.0001554,7.6474e-05,2.5091e-05,3.1071e-06,4.6798e-07,4.2563e-06,6.2543e-06,6.2226e-06,5.2001e-06,3.6662e-06,2.2453e-06,8.1738e-07,1.136e-10,1.5473e-06,9.697e-06,3.7072e-05,0.00010629,0.00024748,0.00048366,0.00080005,0.0011521,0.0014787,0.0016819,0.0016673,0.0014029,0.00094483,0.00045222,0.00010383,2.3511e-06,0.0001706,0.00054578,0.00099332,0.0013558,0.0015134,0.0014549,0.0012521,0.00097926,0.00069902,0.0004596,0.00028216,0.00016835,0.00010566,7.3753e-05,5.7174e-05,4.8598e-05,4.4302e-05,4.2079e-05,4.0869e-05,3.8985e-05,3.4612e-05,2.8036e-05,2.0849e-05,1.4406e-05,9.6256e-06,6.6538e-06,5.1954e-06,5.5348e-06,9.4001e-06,2.1319e-05,4.8989e-05,9.8758e-05,0.0001664,0.00023424,0.00027787,0.00026967,0.00019139,6.8984e-05,1.2991e-07,0.00013783,0.00061292,0.0014542,0.002578,0.0037884,0.0047883,0.0052731,0.0050638,0.0042205,0.0030329,0.0018357,0.00086649,0.00025428,1.2517e-05,4.566e-05,0.00020115,0.00034381,0.00041542,0.00042117,0.00038431,0.00033021,0.0002804,0.0002476,0.00023922,0.00025837,0.00030212,0.00036626,0.00045102,0.0005589,0.000694,0.00086814,0.0010997,0.0014045,0.0017884,0.0022356,0.0026974,0.0031116,0.0034198,0.0035468,0.0034174,0.0030267,0.0024574,0.0018376,0.0012815,0.0008304,0.00047431,0.00021396,5.5833e-05,4.749e-09,8.0007e-05,0.00041432,0.0012438,0.0028531,0.0053553,0.008622,0.012321,0.015831,0.018287,0.018802,0.016885,0.012991,0.0083715,0.0042574,0.0014338,0.00014585,8.9585e-05,0.00057739,0.00084524,0.00056474,9.0886e-05,0.00011722,0.0011366,0.0030677,0.0052726,0.0067108,0.0063038,0.0038881,0.00093016,0.00019032,0.0043032,0.014223,0.028901,0.045354,0.058887,0.064765,0.060485,0.047444,0.030517,0.014992,0.0043535,9.9755e-05,0.0016436,0.0065876,0.011796,0.014885,0.015294,0.01372,0.011052,0.0080914,0.0054462,0.0034256,0.0020968,0.0013204,0.0008574,0.00053491,0.00028692,0.00010513,9.0287e-06,2.0313e-05,0.00014531,0.00037425,0.00065295,0.00088274,0.00098106,0.00092105,0.00074004,0.00051563,0.00031216,0.00016425,8.2601e-05,5.2613e-05,5.4507e-05,8.1578e-05,0.00013213,0.00019318,0.00023919,0.00023563,0.00015281,3.2192e-05,1.9581e-05,0.0002866,0.00094603,0.0020271,0.0034881,0.0051575,0.0066341,0.0074567,0.0074273,0.0066432,0.0053277,0.0037199,0.0020836,0.00076896,8.3781e-05,6.4241e-05,0.0005129,0.0011859,0.0018731,0.0023893,0.0025792,0.0024056,0.0019977,0.0015307,0.0011078,0.0007635,0.00050263,0.00032194,0.00021419,0.00016247,0.00014418,0.00014029,0.00013913,0.00013593,0.00013171,0.00013072,0.00013671,0.00015387,0.00019357,0.00028251,0.00046963,0.00082623,0.0014206,0.0022597,0.0032435,0.0041768,0.0047941,0.0048003,0.0040162,0.0025743,0.0010041,6.189e-05,0.00033055,0.001918,0.0044142,0.0070031,0.0087443,0.0089721,0.0076317,0.0053302,0.0029591,0.0011964,0.00027071,5.4233e-06,3.9116e-05,7.5649e-05,2.9464e-05,4.527e-06,0.00013845,0.00043418,0.00072158,0.00079573,0.00059124,0.00024862,1.7123e-05,7.5045e-05,0.00042505,0.00086527,0.0010889,0.00091237,0.0004358,3.8396e-05,0.00012981,0.00086091,0.0020659,0.0033164,0.0041039,0.0040879,0.003239,0.0019255,0.000732,7.793e-05,7.821e-05,0.00058963,0.0013208,0.0019703,0.0023043,0.0022517,0.00193,0.0015075,0.0011055,0.0007878,0.00056352,0.00041571,0.00032947,0.00028942,0.0002773,0.00028077,0.00029551,0.00032231,0.00037409,0.0004845,0.00070819,0.0011207,0.0018082,0.0028188,0.0040976,0.0054645,0.0065869,0.0069723,0.0061935,0.0042629,0.0018468,0.00016779,0.00049627,0.0035788,0.0093073,0.016465,0.022949,0.026614,0.026191,0.021972,0.015572,0.0089152,0.0036276,0.00067018,2.6359e-05,0.0009068,0.0022301,0.0031755,0.0034652,0.0031688,0.0025193,0.0017958,0.0011773,0.00073795,0.00047737,0.00033542,0.00025154,0.0001936,0.00013988,7.9778e-05,2.4472e-05,7.7831e-08,4.4266e-05,0.00018211,0.00040257,0.00066501,0.00089334,0.0010019,0.00094175,0.00071996,0.00042087,0.00016154,1.8018e-05,1.7315e-05,0.00013491,0.00030034,0.00042903,0.00045943,0.00039311,0.00027701,0.00015586,6.186e-05,1.1205e-05,3.7138e-07,1.2913e-05,2.8361e-05,3.497e-05,3.2029e-05,2.2624e-05,1.1181e-05,2.4006e-06,2.771e-07,7.4449e-06,2.424e-05,5.0898e-05,8.9178e-05,0.00014142,0.00021064
8.2946e-05,0.00080219,0.0021152,0.003604,0.0047669,0.0052236,0.0048753,0.0038916,0.0025772,0.0013187,0.00044287,4.6136e-05,2.6253e-05,0.00019106,0.00036906,0.00046937,0.00046007,0.00036705,0.00025008,0.00014887,7.9193e-05,3.9965e-05,1.8638e-05,6.6155e-06,1.0194e-06,4.5211e-07,8.5806e-06,3.5431e-05,9.6868e-05,0.00020875,0.00036636,0.00054554,0.00071389,0.00081948,0.00081199,0.00067531,0.00043905,0.0001901,2.8772e-05,1.2871e-05,0.00015474,0.00041662,0.00071877,0.00096745,0.0010883,0.0010721,0.00096155,0.00080053,0.00062644,0.0004702,0.00034774,0.00026496,0.00021965,0.00020103,0.00019798,0.0002047,0.00021795,0.00023505,0.00025291,0.00026406,0.00025914,0.00023521,0.00019722,0.00015348,0.00011142,7.5631e-05,5.0041e-05,3.9485e-05,5.1683e-05,0.00010989,0.00026245,0.00055517,0.00097651,0.0014253,0.0017118,0.0015913,0.00092735,0.00010788,0.00045777,0.0040482,0.012758,0.027151,0.045814,0.065152,0.079486,0.082693,0.071762,0.049484,0.023975,0.0051429,0.00037046,0.012174,0.03723,0.066636,0.089375,0.097421,0.089331,0.070031,0.046726,0.025509,0.010356,0.0023944,4.2353e-05,0.00049668,0.001388,0.00173,0.0015654,0.0011891,0.00084126,0.00063371,0.00057594,0.00066431,0.00087996,0.001101,0.0011258,0.00085257,0.00039373,4.1994e-05,7.8509e-05,0.00057131,0.0013121,0.0018563,0.0017789,0.0010585,0.00021908,8.0423e-05,0.0012915,0.0039867,0.0076938,0.011458,0.014192,0.015163,0.014305,0.012104,0.0092433,0.0063585,0.0038991,0.002076,0.00090452,0.00027031,2.0117e-05,3.7687e-05,0.0002432,0.00057617,0.00098473,0.0014082,0.0017829,0.0020475,0.0021504,0.0020884,0.0019056,0.0016525,0.0013786,0.001129,0.00093085,0.00079843,0.00073557,0.00073024,0.0007621,0.00081471,0.00087729,0.00094558,0.0010222,0.0011072,0.001199,0.0013149,0.0015072,0.0018555,0.0024469,0.003343,0.0045425,0.0059879,0.0075881,0.0091382,0.010187,0.010118,0.0085444,0.005718,0.0025697,0.0003498,0.00038329,0.0039624,0.011796,0.023194,0.03595,0.047329,0.055251,0.05844,0.056056,0.048186,0.036544,0.023992,0.013175,0.0054992,0.0012123,3.6904e-06,0.0011589,0.003525,0.0059105,0.0075945,0.0084298,0.0085427,0.0080487,0.0070921,0.0059412,0.0048673,0.0040035,0.0033454,0.0028247,0.0023938,0.0020597,0.0018406,0.0017279,0.0017094,0.0018027,0.0020599,0.0025511,0.003324,0.0043303,0.0053868,0.0062292,0.0065625,0.0060943,0.0046987,0.0026618,0.00076448,1.1483e-06,0.00096107,0.0034205,0.0064623,0.0088142,0.0093647,0.0077643,0.0047215,0.0017427,0.00015566,0.00018632,0.0010427,0.0016215,0.0012945,0.00038556,4.9809e-05,0.0016335,0.0055923,0.010909,0.015646,0.017942,0.017016,0.013459,0.008638,0.0041509,0.0012065,6.0795e-05,0.00018569,0.0007759,0.0012194,0.0013281,0.0011769,0.0009244,0.00071589,0.00060945,0.00061318,0.00074337,0.0010061,0.0013592,0.0017243,0.0020018,0.0020994,0.002004,0.0017653,0.0014369,0.0010831,0.0007673,0.00052105,0.00035131,0.00024812,0.00018922,0.00015497,0.00013466,0.00012182,0.0001125,0.00010568,0.00010114,9.8938e-05,0.0001012,0.00011273,0.00014074,0.00019432,0.00028185,0.00040434,0.00054778,0.00068507,0.00078182,0.00079487,0.00068841,0.00047036,0.00020961,2.4746e-05,3.6439e-05,0.0003147,0.00086222,0.0015891,0.0023232,0.0028944,0.0032009,0.0032555,0.0031645,0.0030332,0.0029813,0.0031959,0.0038828,0.005235,0.0073876,0.010215,0.013243,0.015805,0.01696,0.015597,0.011369,0.0055058,0.00082798,0.00065722,0.0070401,0.020023,0.037353,0.054297,0.065247,0.066163,0.05675,0.04089,0.02387,0.0099422,0.0018352,0.00010972,0.0030545,0.0077052,0.011363,0.012898,0.01249,0.010728,0.008349,0.0060257,0.0041495,0.0028708,0.0021194,0.0016901,0.0014152,0.0012125,0.0010328,0.00084778,0.00064987,0.00043606,0.00022524,6.3854e-05,3.941e-10,7.7553e-05,0.00033603,0.00080631,0.001507,0.0024289,0.003528,0.0047192,0.0058787,0.006886,0.0076468,0.0080781,0.0081142,0.0077061,0.0068362,0.0055627,0.0040008,0.0023211,0.00083962,3.3537e-05,0.00042534,0.002381,0.0059013,0.01056,0.015469,0.019353,0.021021,0.019889,0.016261,0.011262,0.0062721,0.0024158,0.00035404,7.7289e-05,0.00097712,0.0022036,0.0030586,0.0032684,0.0028947,0.0021472,0.001307,0.00060667,0.00016683,4.7368e-06,4.693e-05,0.00020131,0.00039686,0.00057437,0.00069325,0.00072489,0.00066278,0.00053751,0.00038386,0.00022756,9.6869e-05,1.6085e-05,5.3555e-06,7.9042e-05,0.00024045,0.00048489,0.00079279,0.0011311,0.001459,0.0017187,0.001851,0.0018205,0.001625,0.0013099,0.00094866,0.00060364,0.0003207,0.00012782,2.7079e-05,1.2552e-09,1.7494e-05,5.3296e-05,9.2401e-05,0.00012707,0.00015371,0.00017191,0.00018221,0.00018636,0.00018604,0.00018047,0.00016882,0.00015255,0.00013343,0.00011254,9.0364e-05,6.6784e-05,4.2582e-05,2.0389e-05,4.1007e-06,1.3079e-06,2.612e-05,9.6381e-05,0.0002246,0.00040522,0.00061234,0.00080784,0.00093979,0.00095227,0.00082026,0.00057264,0.00029203,7.9348e-05,3.1667e-08,7.2167e-05,0.00026866,0.00051735,0.00073096,0.00083936,0.00082275,0.00071766,0.00056899,0.00041156,0.00027822,0.00018427,0.00012836,0.00010718,0.0001171,0.00015718,0.00023438,0.00035358,0.00050008,0.00064873,0.00076838,0.00081145,0.00074279,0.00056525,0.00032256,0.00010478,2.1462e-06,5.8708e-05,0.0002732,0.00059309,0.00092775,0.0011786,0.0012728,0.0012101,0.001044,0.00082725,0.00060438,0.00041076,0.00026278,0.00016312,0.00010398,7.0521e-05,5.0643e-05,3.8264e-05,3.0103e-05,2.4195e-05,1.9638e-05,1.5629e-05,1.173e-05,8.3737e-06,6.0128e-06,4.6425e-06,4.1309e-06,4.3891e-06,5.4294e-06,7.4828e-06,1.0946e-05,1.6112e-05,2.2987e-05,3.1254e-05,4.0257e-05,4.9093e-05,5.6735e-05,6.2039e-05,6.3864e-05,6.1389e-05,5.4357e-05,4.324e-05,2.9364e-05,1.5024e-05,3.6814e-06,2.2562e-07,1.0962e-05,4.3222e-05,0.00010468,0.00020267,0.00034377,0.00053296,0.00077265,0.0010626,0.0014005,0.0017838,0.0022109,0.0026804,0.003189,0.0037318,0.0043028,0.004893,0.0054885,0.006067,0.0065958,0.007035,0.0073449,0.0074901,0.0074426,0.0071829,0.0067005,0.0059975,0.0050954,0.0040406,0.0029061,0.0017913,0.00082428,0.00016879,2.325e-05,0.00060448,0.0021184,0.0047384,0.0086013,0.013797,0.020342,0.028163,0.037138,0.047198,0.05841,0.070907,0.084735,0.099807,0.11597,0.13301,0.15049,0.16727,0.18123,0.18969,0.19039,0.18212,0.16473,0.13912,0.10756,0.074065,0.043671,0.020491,0.0062084,0.00032974,0.0014663,0.0082212,0.019375,0.034364,0.054413,0.083567,0.12822,0.19328,0.27712,0.37262,0.47392,0.58243,0.70802,0.86172,1.0557,1.333,1.796,2.5972,3.896,5.7516,7.9723,10.119,11.639,11.85,10.111,6.4716,2.258,0.010276,2.3432,10.472,23.763,39.674,53.906,61.754,60.171,49.637,34.195,18.773,7.0194,0.89302,0.38925,3.6753,7.9936,11.012,11.908,11.039,9.0826,6.7467,4.601,2.9522,1.8843,1.2927,0.98388,0.81152,0.70335,0.61989,0.54014,0.45649,0.36088,0.25521,0.15818,0.085118,0.038551,0.013783,0.0031756,0.00011058,0.00049119,0.0018858,0.0033113,0.0049044,0.0073577,0.011787,0.019589,0.031916,0.049134,0.070617,0.094495,0.11746,0.13556,0.14549,0.14555,0.13663,0.12189,0.10468,0.087615,0.072555,0.060288,0.050655,0.043171,0.037014,0.031104,0.024753,0.017913,0.011051,0.0051573,0.0012998,6.1701e-08,0.0010978,0.0037647,0.0067718,0.0089764,0.0096437,0.0087424,0.0068804,0.0047726,0.0029307,0.0016124,0.00081935,0.00041895,0.00026758,0.00026208,0.00035545,0.00053169,0.00077179,0.0010365,0.0012819,0.0014687,0.0015536,0.0015205,0.0014003,0.0012353,0.0010566,0.00088429,0.00072598,0.00058436,0.00046471,0.00036852,0.00029138,0.00022881,0.00017801,0.00013698,0.00010471,8.0187e-05,6.1709e-05,4.7763e-05,3.7412e-05,2.9924e-05,2.4651e-05,2.1017e-05,1.8436e-05,1.6377e-05,1.4482e-05,1.2518e-05,1.0281e-05,7.6224e-06,4.6447e-06,1.8657e-06,1.7722e-07,3.6005e-07,2.6378e-06,6.9061e-06,1.3058e-05,2.1058e-05,3.1078e-05,4.4059e-05,6.3861e-05,0.00010037,0.00017079,0.00029852,0.00050951,0.00082316,0.0012407,0.0017338,0.0022138,0.0025131,0.002457,0.0019829,0.0012092,0.00043082,1.2299e-05,0.00024493,0.0012161,0.0026645,0.0040087,0.0046283,0.004202,0.0029347,0.0014368,0.00033899,2.3127e-06,0.0003461,0.00087715,0.0010233,0.00058951,5.0075e-05,0.00028472,0.0019217,0.0048986,0.0083862,0.011049,0.011574,0.0093871,0.0053255,0.0014665,1.1645e-05,0.0023469,0.0087287,0.018235,0.028837,0.037845,0.042969,0.043285,0.039128,0.031449,0.021683,0.011829,0.0041069,0.00025987,0.001052,0.0063506,0.015351,0.026427,0.037224,0.045419,0.04949,0.049036,0.044488,0.0367,0.027037,0.017346,0.0092568,0.003646,0.00067266,3.7791e-05,0.0012404,0.0036391,0.0065081,0.0093028,0.011759,0.013764,0.015267,0.016193,0.016454,0.016083,0.015142,0.013554,0.011263,0.0084132,0.0053475,0.0025766,0.00064936,3.2311e-06,0.00088329,0.0031394,0.0061337,0.0089829,0.010868,0.011302,0.01023,0.0079574,0.0051417,0.002598,0.00087563,9.3277e-05,5.3515e-05,0.00041924,0.00086553,0.0011477,0.0011642,0.00097779,0.00071278,0.00046303,0.00027332,0.00014788,7.4089e-05,3.7574e-05,2.3139e-05,1.891e-05,1.8762e-05,1.9752e-05,2.0041e-05,1.9146e-05,1.7352e-05,1.4439e-05,1.0484e-05,6.4381e-06,3.1617e-06,1.029e-06,7.9641e-08,1.8258e-07,1.3142e-06,3.5345e-06,6.8741e-06,1.1417e-05,1.7286e-05,2.4606e-05,3.3517e-05,4.4057e-05,5.613e-05,6.9615e-05,8.436e-05,0.00010012,0.00011658,0.00013334,0.00014992,0.00016577,0.00018033,0.00019299,0.00020307,0.00020993,0.00021306,0.0002121,0.00020678,0.00019679,0.00018168,0.00016132,0.00013633,0.00010811,7.8543e-05,4.9917e-05,2.5081e-05,7.5092e-06,1.533e-07,3.5578e-06,1.6185e-05,3.6944e-05,6.7725e-05,0.00011465,0.0001884,0.00030873,0.00051563,0.00087554,0.0014697,0.0023574,0.0035163,0.0048109,0.0060256,0.0068836,0.0070633,0.0063442,0.0047932,0.0028277,0.0010855,0.00011125,0.00015006,0.0011396,0.0027141,0.0043093,0.005384,0.0056366,0.005139,0.0041862,0.0030693,0.0020389,0.0012583,0.00075747,0.00049569,0.00041683,0.00048059,0.00068751,0.0010502,0.0015061,0.0018995,0.0020681,0.001879,0.0013058,0.00054647,2.7654e-05,0.00028046,0.0015587,0.0035452,0.0055435,0.0067759,0.0066901,0.0052252,0.0029078,0.00081811,1.0615e-07,0.00070762,0.0023925,0.0041385,0.0051297,0.0049446,0.0036482,0.00187,0.00048307,2.148e-09,0.00039514,0.0012947,0.0022483,0.0029027,0.0030381,0.0026598,0.0019973,0.0013074,0.000746,0.00036373,0.00013949,3.1942e-05,6.8879e-07,6.6962e-06,2.4338e-05,4.4079e-05,6.4631e-05,8.7431e-05,0.00011223,0.00013705,0.00016168,0.00018622,0.00020822,0.00022435,0.00023192,0.00022926,0.0002168,0.00019614,0.00016859,0.00013615,0.00010227,7.0729e-05,4.4079e-05,2.3391e-05,9.0426e-06,1.3081e-06,5.9607e-07,7.8515e-06,2.6504e-05,6.6666e-05,0.00014785,0.00029672,0.00054133,0.00090064,0.0013725,0.0019219,0.0024507,0.0027833,0.0027479,0.0022869,0.0015054,0.00066239,8.8972e-05
6.3527e-05,9.6474e-05,0.00013374,0.00016075,0.00015713,0.00011574,5.4467e-05,8.0124e-06,4.6504e-06,4.5026e-05,9.2393e-05,7.8518e-05,4.3394e-06,0.00015335,0.0012133,0.0040851,0.0093786,0.016981,0.025809,0.03347,0.036701,0.033159,0.023267,0.010877,0.0017655,0.00081045,0.010254,0.028642,0.050372,0.067661,0.07404,0.067705,0.052199,0.033294,0.016229,0.0047742,0.00019448,0.0010547,0.0043627,0.0072989,0.0085875,0.0082665,0.0068486,0.0050042,0.0033055,0.0020471,0.0012898,0.00092184,0.00077264,0.00072606,0.00072869,0.00074678,0.00075618,0.00074267,0.00068801,0.00058704,0.00046323,0.00034238,0.00023691,0.00015193,8.7245e-05,4.0854e-05,1.2332e-05,5.7102e-07,3.6246e-06,2.0367e-05,5.0275e-05,9.3107e-05,0.00014844,0.00021539,0.00029327,0.00038121,0.00047629,0.00057296,0.00066503,0.00074791,0.00081846,0.00087439,0.00091447,0.00094083,0.00096519,0.0010102,0.0010981,0.0012415,0.0014431,0.0016931,0.0019659,0.0022149,0.0023477,0.0022285,0.0017706,0.0010448,0.00031501,1.497e-06,0.00056035,0.0023458,0.0054521,0.009522,0.013803,0.017435,0.01972,0.020423,0.019798,0.018261,0.016262,0.014195,0.012191,0.010201,0.0081611,0.005901,0.0033366,0.00095419,2.4248e-05,0.0024042,0.0096606,0.022034,0.038288,0.055544,0.069346,0.075236,0.070728,0.056947,0.038574,0.020955,0.0078173,0.0010258,0.00037594,0.003774,0.0082504,0.011365,0.012306,0.011489,0.0096042,0.0073379,0.0052454,0.0036275,0.0025802,0.0020215,0.0017633,0.0016478,0.001595,0.0015589,0.001511,0.0014374,0.0013177,0.0011441,0.00094455,0.00075121,0.00057933,0.00043428,0.00031454,0.00021589,0.00013726,7.8065e-05,3.6203e-05,1.0312e-05,1.5036e-07,6.2273e-06,2.9872e-05,7.2442e-05,0.00013435,0.00021413,0.00030891,0.00041632,0.00053423,0.00065812,0.00078067,0.00089755,0.0010186,0.0011735,0.0014019,0.0017396,0.0022178,0.0028729,0.0037507,0.0048748,0.0061517,0.0072797,0.0078159,0.00741,0.0059937,0.0038344,0.0015457,9.6245e-05,0.00062901,0.0038454,0.0093339,0.015627,0.020894,0.0236,0.022898,0.018868,0.012739,0.0066029,0.0022619,0.00027232,7.3914e-05,0.00067265,0.0012172,0.0012535,0.00079351,0.00024162,1.6683e-06,0.00012028,0.00035149,0.00044353,0.00033462,0.00012729,7.3059e-07,0.00013307,0.00056439,0.0011415,0.0016153,0.0018069,0.0017106,0.0014209,0.0010371,0.00065547,0.00035142,0.00015412,5.259e-05,1.2614e-05,1.1546e-06,3.3429e-07,2.6499e-06,4.8584e-06,5.772e-06,5.2263e-06,3.856e-06,2.2778e-06,7.2423e-07,1.3368e-08,1.9274e-06,8.1167e-06,1.8665e-05,3.2238e-05,4.8335e-05,6.9089e-05,9.9199e-05,0.00014591,0.00022311,0.00036049,0.00061063,0.0010431,0.0017135,0.0026067,0.0035995,0.004486,0.0050055,0.0048803,0.003963,0.0024287,0.00084922,1.66e-05,0.00055878,0.0026791,0.0061044,0.010097,0.013639,0.015782,0.016039,0.014598,0.012067,0.0090816,0.0061826,0.0037566,0.001978,0.00084573,0.00024153,1.3066e-05,5.0194e-05,0.00027729,0.00063046,0.0010505,0.001469,0.0018179,0.0020368,0.0020774,0.0019417,0.0016809,0.0013532,0.0010147,0.00071416,0.00047671,0.00030832,0.0002008,0.00013556,9.5601e-05,7.111e-05,5.618e-05,4.7075e-05,4.2028e-05,3.9799e-05,3.9577e-05,4.1934e-05,4.8227e-05,5.9869e-05,7.8517e-05,0.00010509,0.00013787,0.00017304,0.00020738,0.00024038,0.00027574,0.00032068,0.00038401,0.00048044,0.00063962,0.00090683,0.00133,0.0019302,0.0026578,0.0033761,0.0039052,0.004062,0.0036932,0.0027776,0.0015335,0.0004216,3.8289e-06,0.00071256,0.0027441,0.0061105,0.010684,0.016239,0.022475,0.028978,0.035206,0.04046,0.043754,0.043873,0.039749,0.031139,0.019413,0.0078526,0.00074481,0.0016074,0.011714,0.029326,0.049705,0.06637,0.073559,0.069038,0.055197,0.037145,0.020031,0.0075536,0.0011901,0.00011216,0.0019664,0.0042267,0.0054488,0.0054123,0.0044964,0.0032331,0.0020602,0.0012032,0.00069984,0.00046195,0.00036811,0.00033452,0.00031714,0.00028652,0.00022464,0.000135,4.3572e-05,5.429e-09,5.2008e-05,0.00020584,0.00042589,0.00064341,0.00077423,0.00076142,0.00060158,0.00035753,0.00013427,1.2206e-05,2.1163e-05,0.00013769,0.00028611,0.00037854,0.0003556,0.00022554,7.1764e-05,9.2543e-09,9.7596e-05,0.00038376,0.00078069,0.0011521,0.001334,0.0012132,0.00081673,0.00031688,1.0233e-05,0.00018635,0.00097164,0.0023058,0.0039259,0.005433,0.0064327,0.0066433,0.006064,0.0049564,0.0036162,0.0023014,0.0012194,0.00047319,8.2607e-05,6.4379e-06,0.0001706,0.00051366,0.00097881,0.0015075,0.0020412,0.0025029,0.0028171,0.0029325,0.0028206,0.0025074,0.0020681,0.0015775,0.0011024,0.00069916,0.00039536,0.00019308,7.6281e-05,1.9105e-05,3.6688e-07,7.2696e-06,3.1765e-05,6.9213e-05,0.00011688,0.00017373,0.00023953,0.00031108,0.00038233,0.00044771,0.0005026,0.00054346,0.00056806,0.00057436,0.00056143,0.00053194,0.00049112,0.00044331,0.00039069,0.00033442,0.00027554,0.00021532,0.00015477,9.3811e-05,3.6397e-05,1.3162e-06,2.5964e-05,0.00015913,0.00044727,0.00091804,0.0015634,0.002302,0.002945,0.0032573,0.0030843,0.0024387,0.0015198,0.00063546,8.4619e-05,5.3196e-05,0.00047063,0.00097817,0.0011498,0.00080966,0.00022874,2.2187e-05,0.00084573,0.0030565,0.0063383,0.0095888,0.01134,0.010568,0.0074538,0.0034223,0.00047894,0.00040452,0.0039969,0.010516,0.017782,0.023131,0.024734,0.02238,0.01726,0.011159,0.0057532,0.0021122,0.00038961,3.3531e-09,0.00014611,0.00027649,0.00023368,0.00010033,7.4519e-06,2.0568e-05,0.00010106,0.00016271,0.00014662,6.9194e-05,5.0717e-06,2.7919e-05,0.00018706,0.00049724,0.00094225,0.0014828,0.0020503,0.0025793,0.003023,0.0033242,0.0034263,0.0032998,0.0029486,0.0024345,0.0018555,0.001292,0.00080302,0.00042961,0.0001835,5.1264e-05,3.2806e-06,6.5033e-06,3.7807e-05,8.362e-05,0.0001359,0.00019067,0.00024578,0.00030111,0.00035729,0.00041156,0.00045892,0.00049572,0.00051959,0.0005296,0.00052626,0.00050976,0.00048018,0.00043917,0.00038937,0.00033353,0.00027451,0.00021504,0.00015796,0.00010675,6.4718e-05,3.3395e-05,1.2636e-05,1.7882e-06,9.2046e-07,1.175e-05,3.7774e-05,8.5678e-05,0.00016817,0.00030299,0.00050676,0.00078351,0.00111,0.001437,0.0017045,0.0018436,0.001793,0.001542,0.0011445,0.00070503,0.00033946,0.00011013,1.2407e-05,3.4048e-06,2.73e-05,4.6931e-05,5.404e-05,5.8189e-05,8.0376e-05,0.00015613,0.00035324,0.0007896,0.001598,0.0028059,0.0042646,0.0056693,0.0066035,0.0067227,0.005924,0.004366,0.0025066,0.00095251,0.00011411,7.3327e-05,0.00063586,0.0014565,0.0021928,0.0025833,0.0025384,0.0021722,0.0016674,0.0011671,0.00075536,0.00045503,0.00025567,0.00013863,7.7443e-05,4.5984e-05,2.8437e-05,1.7405e-05,9.6201e-06,4.3096e-06,1.2815e-06,5.5179e-08,4.1269e-07,2.0353e-06,4.1203e-06,5.7254e-06,6.1035e-06,5.1142e-06,3.2021e-06,1.1171e-06,4.0398e-09,1.3842e-06,7.0366e-06,1.8932e-05,3.8901e-05,6.7996e-05,0.00010581,0.00015074,0.00020105,0.00025492,0.00031033,0.00036598,0.00042299,0.0004891,0.0005799,0.00071092,0.00089049,0.0011203,0.0013928,0.0016867,0.0019591,0.0021238,0.0020658,0.0017334,0.0011919,0.00058938,0.00012348,2.3055e-05,0.00054312,0.0019042,0.00416,0.0072767,0.011344,0.016538,0.022937,0.030206,0.03735,0.043175,0.046686,0.046571,0.041389,0.030975,0.017496,0.0054796,3.7861e-05,0.0043339,0.018819,0.040872,0.064476,0.082016,0.087418,0.079364,0.061965,0.041261,0.022341,0.0087618,0.0017554,3.8271e-08,0.00072727,0.0014512,0.0012718,0.00056674,3.9051e-05,0.00017983,0.00099087,0.0019721,0.0024074,0.0019359,0.00092309,0.00012001,0.00013196,0.0011959,0.0031599,0.0055154,0.0075315,0.008573,0.0084366,0.0073922,0.0058844,0.00428,0.0028539,0.0017715,0.0010581,0.0006529,0.00046237,0.00039976,0.00041697,0.00049182,0.00058674,0.00064618,0.00062968,0.00052207,0.00034771,0.0001655,3.476e-05,2.31e-06,6.246e-05,0.00013928,0.00015381,9.1891e-05,1.6987e-05,7.8416e-06,0.0001037,0.00028094,0.00043314,0.00043534,0.0002582,4.2705e-05,4.0359e-05,0.00043121,0.0012406,0.0023338,0.0034399,0.0042523,0.0045271,0.0042091,0.0034838,0.0026089,0.0017722,0.0010858,0.00059024,0.00027435,0.00010338,2.7744e-05,2.3858e-06,2.1133e-06,1.6334e-05,4.1352e-05,7.5661e-05,0.00011748,0.00016669,0.00022378,0.00028584,0.00034792,0.00040542,0.00045432,0.0004928,0.00052094,0.00053822,0.00054392,0.00053839,0.00052214,0.00049586,0.00046094,0.00041872,0.0003705,0.00031796,0.00026325,0.00020935,0.00015965,0.00011629,7.9587e-05,4.9007e-05,2.428e-05,6.7655e-06,4.2181e-09,1.0364e-05,5.0125e-05,0.00013887,0.00029883,0.00054336,0.00086044,0.0012101,0.001537,0.001771,0.0018404,0.0017116,0.0014091,0.0010145,0.00063902,0.00035591,0.00017901,9.0072e-05,5.8573e-05,6.1499e-05,9.5797e-05,0.00016637,0.00025559,0.00031774,0.00030858,0.00021193,7.5446e-05,2.5521e-07,9.0059e-05,0.00043247,0.0010499,0.0018709,0.0027504,0.0034835,0.0039256,0.0040515,0.003844,0.0033158,0.0025754,0.0017607,0.0010229,0.00048585,0.00016785,2.592e-05,8.4425e-07,2.1307e-05,3.6556e-05,2.8595e-05,9.6657e-06,2.6501e-07,2.2193e-06,5.1086e-06,1.3915e-06,3.3103e-06,3.983e-05,0.00014205,0.00032445,0.00055766,0.00078053,0.00092345,0.00093448,0.00082341,0.00064223,0.00043967,0.00025817,0.00012577,4.6907e-05,1.1225e-05,9.6256e-07,1.2751e-07,9.2089e-07,1.125e-06,7.1032e-07,1.6971e-07,5.8556e-08,1.322e-06,5.503e-06,1.5653e-05,3.876e-05,8.8865e-05,0.00018705,0.00035402,0.00059635,0.00089509,0.0012118,0.001501,0.0017009,0.0017424,0.0016006,0.001317,0.00097762,0.00066667,0.00041887,0.00023058,0.00010061,2.7099e-05,2.7484e-07,2.1452e-05,0.00012477,0.00040004,0.00097076,0.0019087,0.0032069,0.0047844,0.0064395,0.0078708,0.0087272,0.0087191,0.0078547,0.0064224,0.0047429,0.0030995,0.0017207,0.00073028,0.0001686,3.9966e-11,0.00013893,0.00050821,0.0010369,0.0016544,0.0022904,0.0028543,0.0032596,0.0034467,0.0033799,0.0030822,0.0026303,0.0021018,0.0015685,0.0010942,0.00071392,0.00043632,0.00025096,0.00013335,6.088e-05,1.9984e-05,2.0941e-06,1.8873e-06,1.6443e-05,4.4388e-05,8.5429e-05,0.00013776,0.00019724,0.00025939,0.00031982,0.00037467,0.00042107,0.00045625,0.00047785,0.00048485,0.00047695,0.00045429,0.00041828,0.00037225,0.0003209,0.00026825,0.00021644,0.00016672,0.0001203,7.8454e-05,4.2399e-05,1.3843e-05,1.3287e-08,2.1519e-05,0.00011374,0.0003197,0.00067672,0.0012004,0.0018688,0.0025862,0.0031557,0.0033494,0.003038,0.0022721,0.0012933,0.00044155,1.6967e-05,0.00016629,0.00075725,0.0013878,0.001627,0.0012964,0.00061743,7.4968e-05,0.00010643,0.00086975,0.002096,0.0031681,0.0034773,0.0028015,0.0015178,0.00037937,7.1006e-06,0.00061654,0.0019765,0.0035334,0.004692,0.0050599,0.004644,0.0038068,0.0029223,0.0021897,0.0016815,0.0013879,0.0012633,0.0012731,0.0013682,0.001453,0.0014368,0.001284,0.0010063,0.00066433,0.00033986,9.9182e-05,3.8281e-07,8.2129e-05,0.00034814,0.00077518,0.0013125,0.0019018,0.0024847,0.0029797,0.0033024,0.0033969,0.0032449,0.0028905,0.0024196,0.001907,0.0014133,0.00098913,0.00065927,0.00042568,0.00027383,0.00017845,0.00011736,7.7684e-05,5.1499e-05,3.3525e-05,2.084e-05,1.1659e-05,5.1838e-06,1.4e-06,2.693e-08,7.1863e-07,3.8014e-06,1.0246e-05,2.1413e-05,3.8741e-05
